# energy	fit	voigt_0	voigt_1	g_type_edge
8.96000000e+03 7.03134831e-04 6.16762819e-05 6.41458549e-04 0.00000000e+00
8.96037736e+03 7.17032486e-04 6.34394951e-05 6.53592991e-04 0.00000000e+00
8.96075472e+03 7.31352778e-04 6.52793227e-05 6.66073456e-04 0.00000000e+00
8.96113208e+03 7.46113426e-04 6.72002629e-05 6.78913163e-04 0.00000000e+00
8.96150943e+03 7.61333116e-04 6.92071488e-05 6.92125967e-04 0.00000000e+00
8.96188679e+03 7.77031571e-04 7.13051782e-05 7.05726393e-04 0.00000000e+00
8.96226415e+03 7.93229623e-04 7.34999473e-05 7.19729676e-04 0.00000000e+00
8.96264151e+03 8.09949291e-04 7.57974879e-05 7.34151804e-04 0.00000000e+00
8.96301887e+03 8.27213868e-04 7.82043089e-05 7.49009559e-04 0.00000000e+00
8.96339623e+03 8.45048013e-04 8.07274416e-05 7.64320572e-04 0.00000000e+00
8.96377358e+03 8.63477857e-04 8.33744915e-05 7.80103366e-04 0.00000000e+00
8.96415094e+03 8.82531111e-04 8.61536948e-05 7.96377416e-04 0.00000000e+00
8.96452830e+03 9.02237191e-04 8.90739826e-05 8.13163208e-04 0.00000000e+00
8.96490566e+03 9.22627350e-04 9.21450519e-05 8.30482299e-04 0.00000000e+00
8.96528302e+03 9.43734831e-04 9.53774459e-05 8.48357385e-04 0.00000000e+00
8.96566038e+03 9.65595022e-04 9.87826442e-05 8.66812378e-04 0.00000000e+00
8.96603774e+03 9.88245642e-04 1.02373164e-04 8.85872478e-04 0.00000000e+00
8.96641509e+03 1.01172694e-03 1.06162673e-04 9.05564264e-04 0.00000000e+00
8.96679245e+03 1.03608190e-03 1.10166123e-04 9.25915775e-04 1.10981645e-17
8.96716981e+03 1.06135651e-03 1.14399892e-04 9.46956618e-04 3.32944934e-17
8.96754717e+03 1.08760001e-03 1.18881951e-04 9.68718064e-04 8.87853158e-17
8.96792453e+03 1.11486522e-03 1.23632056e-04 9.91233167e-04 2.44159618e-16
8.96830189e+03 1.14320885e-03 1.28671963e-04 1.01453688e-03 6.43693540e-16
8.96867925e+03 1.17269188e-03 1.34025676e-04 1.03866621e-03 1.72021549e-15
8.96905660e+03 1.20338003e-03 1.39719728e-04 1.06366030e-03 4.48365845e-15
8.96943396e+03 1.23534418e-03 1.45783510e-04 1.08956067e-03 1.15420911e-14
8.96981132e+03 1.26866097e-03 1.52249648e-04 1.11641132e-03 2.92547616e-14
8.97018868e+03 1.30341336e-03 1.59154433e-04 1.14425892e-03 7.30481186e-14
8.97056604e+03 1.33969138e-03 1.66538331e-04 1.17315304e-03 1.79623792e-13
8.97094340e+03 1.37759290e-03 1.74446570e-04 1.20314633e-03 4.35059146e-13
8.97132075e+03 1.41722458e-03 1.82929821e-04 1.23429475e-03 1.03793364e-12
8.97169811e+03 1.45870287e-03 1.92045008e-04 1.26665786e-03 2.43909910e-12
8.97207547e+03 1.50215530e-03 2.01856248e-04 1.30029905e-03 5.64581384e-12
8.97245283e+03 1.54772184e-03 2.12435967e-04 1.33528586e-03 1.28725834e-11
8.97283019e+03 1.59555657e-03 2.23866222e-04 1.37169032e-03 2.89102967e-11
8.97320755e+03 1.64582962e-03 2.36240269e-04 1.40958928e-03 6.39575677e-11
8.97358491e+03 1.69872941e-03 2.49664445e-04 1.44906483e-03 1.39376354e-10
8.97396226e+03 1.75446539e-03 2.64260415e-04 1.49020467e-03 2.99191698e-10
8.97433962e+03 1.81327120e-03 2.80167891e-04 1.53310267e-03 6.32672641e-10
8.97471698e+03 1.87540853e-03 2.97547924e-04 1.57785929e-03 1.31790390e-09
8.97509434e+03 1.94117181e-03 3.16586906e-04 1.62458220e-03 2.70439455e-09
8.97547170e+03 2.01089381e-03 3.37501484e-04 1.67338686e-03 5.46694587e-09
8.97584906e+03 2.08495274e-03 3.60544602e-04 1.72439725e-03 1.08871720e-08
8.97622642e+03 2.16378091e-03 3.86012991e-04 1.77774656e-03 2.13593763e-08
8.97660377e+03 2.24787588e-03 4.14256516e-04 1.83357808e-03 4.12831897e-08
8.97698113e+03 2.33781455e-03 4.45689899e-04 1.89204604e-03 7.86099668e-08
8.97735849e+03 2.43427171e-03 4.80807560e-04 1.95331668e-03 1.47472373e-07
8.97773585e+03 2.53804442e-03 5.20202509e-04 2.01756934e-03 2.72572452e-07
8.97811321e+03 2.65008470e-03 5.64590634e-04 2.08499770e-03 4.96365534e-07
8.97849057e+03 2.77154389e-03 6.14842138e-04 2.15581116e-03 8.90595318e-07
8.97886792e+03 2.90383344e-03 6.72022645e-04 2.23023634e-03 1.57445329e-06
8.97924528e+03 3.04870885e-03 7.37447430e-04 2.30851883e-03 2.74259654e-06
8.97962264e+03 3.20838620e-03 8.12753700e-04 2.39092500e-03 4.70749456e-06
8.98000000e+03 3.38570425e-03 8.99997943e-04 2.47774421e-03 7.96209482e-06
8.98037736e+03 3.58435016e-03 1.00178852e-03 2.56929108e-03 1.32705607e-05
8.98075472e+03 3.80917326e-03 1.12146836e-03 2.66590817e-03 2.17967336e-05
8.98113208e+03 4.06662039e-03 1.26336967e-03 2.76796892e-03 3.52817970e-05
8.98150943e+03 4.36533851e-03 1.43317350e-03 2.87588098e-03 5.62840362e-05
8.98188679e+03 4.71700725e-03 1.63842321e-03 2.99008991e-03 8.84941281e-05
8.98226415e+03 5.13748808e-03 1.88926626e-03 3.11108338e-03 1.37138443e-04
8.98264151e+03 5.64841062e-03 2.19953505e-03 3.23939588e-03 2.09479690e-04
8.98301887e+03 6.27936238e-03 2.58833016e-03 3.37561407e-03 3.15418150e-04
8.98339623e+03 7.07090046e-03 3.08233063e-03 3.52038273e-03 4.68187103e-04
8.98377358e+03 8.07862934e-03 3.71909525e-03 3.67441164e-03 6.85122457e-04
8.98415094e+03 9.37845245e-03 4.55150002e-03 3.83848322e-03 9.88469210e-04
8.98452830e+03 1.10723672e-02 5.65273895e-03 4.01346129e-03 1.40616699e-03
8.98490566e+03 1.32915195e-02 7.11868345e-03 4.20030098e-03 1.97253507e-03
8.98528302e+03 1.61853235e-02 9.05650661e-03 4.40006002e-03 2.72875684e-03
8.98566038e+03 1.98666351e-02 1.15296760e-02 4.61391153e-03 3.72304756e-03
8.98603774e+03 2.42586158e-02 1.44050752e-02 4.84315864e-03 5.01038205e-03
8.98641509e+03 2.88408760e-02 1.70999607e-02 5.08925107e-03 6.65166416e-03
8.98679245e+03 3.26148701e-02 1.85488246e-02 5.35380416e-03 8.71224131e-03
8.98716981e+03 3.48463983e-02 1.79480710e-02 5.63862033e-03 1.12597070e-02
8.98754717e+03 3.59578150e-02 1.56511097e-02 5.94571375e-03 1.43609916e-02
8.98792453e+03 3.71043299e-02 1.27481769e-02 6.27733823e-03 1.80788148e-02
8.98830189e+03 3.91676433e-02 1.00639704e-02 6.63601902e-03 2.24676539e-02
8.98867925e+03 4.24892969e-02 7.89524267e-03 7.02458870e-03 2.75694655e-02
8.98905660e+03 4.70930197e-02 6.23732428e-03 7.44622784e-03 3.34094676e-02
8.98943396e+03 5.28877623e-02 4.99091202e-03 7.90451049e-03 3.99923397e-02
8.98981132e+03 5.97549338e-02 4.05226414e-03 8.40345497e-03 4.72992147e-02
8.99018868e+03 6.75716265e-02 3.33823522e-03 8.94757983e-03 5.52858114e-02
8.99056604e+03 7.62116821e-02 2.78772258e-03 9.54196462e-03 6.38819949e-02
8.99094340e+03 8.55423863e-02 2.35713164e-03 1.01923146e-02 7.29929401e-02
8.99132075e+03 9.54225088e-02 2.01553758e-03 1.09050271e-02 8.25019441e-02
8.99169811e+03 1.05702923e-01 1.74088927e-03 1.16872570e-02 9.22747766e-02
8.99207547e+03 1.16229586e-01 1.51730099e-03 1.25469742e-02 1.02165310e-01
8.99245283e+03 1.26848231e-01 1.33318513e-03 1.34930060e-02 1.12022040e-01
8.99283019e+03 1.37410035e-01 1.17997700e-03 1.45350498e-02 1.21695008e-01
8.99320755e+03 1.47777517e-01 1.05126235e-03 1.56836366e-02 1.31042618e-01
8.99358491e+03 1.57829999e-01 9.42175888e-04 1.69500157e-02 1.39937807e-01
8.99396226e+03 1.67468055e-01 8.48982217e-04 1.83459196e-02 1.48273153e-01
8.99433962e+03 1.76616496e-01 7.68780491e-04 1.98831523e-02 1.55964563e-01
8.99471698e+03 1.85225571e-01 6.99293719e-04 2.15729236e-02 1.62953354e-01
8.99509434e+03 1.93270245e-01 6.38716619e-04 2.34248349e-02 1.69206694e-01
8.99547170e+03 2.00747499e-01 5.85604469e-04 2.54454014e-02 1.74716494e-01
8.99584906e+03 2.07671781e-01 5.38790969e-04 2.76359949e-02 1.79496995e-01
8.99622642e+03 2.14068806e-01 4.97326898e-04 2.99901159e-02 1.83581363e-01
8.99660377e+03 2.19968080e-01 4.60433813e-04 3.24899906e-02 1.87017656e-01
8.99698113e+03 2.25394671e-01 4.27468770e-04 3.51026651e-02 1.89864537e-01
8.99735849e+03 2.30361038e-01 3.97897200e-04 3.77760692e-02 1.92187071e-01
8.99773585e+03 2.34860108e-01 3.71271853e-04 4.04359476e-02 1.94052888e-01
8.99811321e+03 2.38861133e-01 3.47216343e-04 4.29850177e-02 1.95528899e-01
8.99849057e+03 2.42310111e-01 3.25412173e-04 4.53059956e-02 1.96678703e-01
8.99886792e+03 2.45136196e-01 3.05588427e-04 4.72698971e-02 1.97560710e-01
8.99924528e+03 2.47264384e-01 2.87513538e-04 4.87499152e-02 1.98226955e-01
8.99962264e+03 2.48632731e-01 2.70988656e-04 4.96392113e-02 1.98722531e-01
9.00000000e+03 2.49210119e-01 2.55842282e-04 4.98687523e-02 1.99085525e-01
9.00037736e+03 2.49009388e-01 2.41925894e-04 4.94201171e-02 1.99347345e-01
9.00075472e+03 2.48091493e-01 2.29110364e-04 4.83290775e-02 1.99533305e-01
9.00113208e+03 2.46559357e-01 2.17283010e-04 4.66787072e-02 1.99663367e-01
9.00150943e+03 2.44543678e-01 2.06345154e-04 4.45843886e-02 1.99752944e-01
9.00188679e+03 2.42185362e-01 1.96210092e-04 4.21754574e-02 1.99813695e-01
9.00226415e+03 2.39619428e-01 1.86801398e-04 3.95783592e-02 1.99854267e-01
9.00264151e+03 2.36963511e-01 1.78051499e-04 3.69045107e-02 1.99880949e-01
9.00301887e+03 2.34311948e-01 1.69900478e-04 3.42438206e-02 1.99898227e-01
9.00339623e+03 2.31734642e-01 1.62295058e-04 3.16631005e-02 1.99909246e-01
9.00377358e+03 2.29279158e-01 1.55187741e-04 2.92078051e-02 1.99916165e-01
9.00415094e+03 2.26974490e-01 1.48536076e-04 2.69055100e-02 1.99920444e-01
9.00452830e+03 2.24835265e-01 1.42302024e-04 2.47699139e-02 1.99923049e-01
9.00490566e+03 2.22865679e-01 1.36451430e-04 2.28046161e-02 1.99924611e-01
9.00528302e+03 2.21062794e-01 1.30953548e-04 2.10063073e-02 1.99925533e-01
9.00566038e+03 2.19419124e-01 1.25780650e-04 1.93672740e-02 1.99926070e-01
9.00603774e+03 2.17924539e-01 1.20907670e-04 1.78772546e-02 1.99926377e-01
9.00641509e+03 2.16567616e-01 1.16311912e-04 1.65247540e-02 1.99926550e-01
9.00679245e+03 2.15336551e-01 1.11972781e-04 1.52979325e-02 1.99926646e-01
9.00716981e+03 2.14219749e-01 1.07871555e-04 1.41851794e-02 1.99926698e-01
9.00754717e+03 2.13206178e-01 1.03991187e-04 1.31754599e-02 1.99926727e-01
9.00792453e+03 2.12285564e-01 1.00316127e-04 1.22585059e-02 1.99926742e-01
9.00830189e+03 2.11448483e-01 9.68321666e-05 1.14249016e-02 1.99926750e-01
9.00867925e+03 2.10686381e-01 9.35263047e-05 1.06661016e-02 1.99926754e-01
9.00905660e+03 2.09991549e-01 9.03866251e-05 9.97440647e-03 1.99926756e-01
9.00943396e+03 2.09357073e-01 8.74021900e-05 9.34291450e-03 1.99926757e-01
9.00981132e+03 2.08776781e-01 8.45629460e-05 8.76546055e-03 1.99926757e-01
9.01018868e+03 2.08245167e-01 8.18596389e-05 8.23655002e-03 1.99926757e-01
9.01056604e+03 2.07757334e-01 7.92837396e-05 7.75129263e-03 1.99926757e-01
9.01094340e+03 2.07308924e-01 7.68273764e-05 7.30533889e-03 1.99926758e-01
9.01132075e+03 2.06896062e-01 7.44832756e-05 6.89482077e-03 1.99926758e-01
9.01169811e+03 2.06515300e-01 7.22447078e-05 6.51629743e-03 1.99926758e-01
9.01207547e+03 2.06163569e-01 7.01054395e-05 6.16670617e-03 1.99926758e-01
9.01245283e+03 2.05838136e-01 6.80596905e-05 5.84331851e-03 1.99926758e-01
9.01283019e+03 2.05536561e-01 6.61020944e-05 5.54370118e-03 1.99926758e-01
9.01320755e+03 2.05256667e-01 6.42276640e-05 5.26568154e-03 1.99926758e-01
9.01358491e+03 2.04996506e-01 6.24317594e-05 5.00731715e-03 1.99926758e-01
9.01396226e+03 2.04754337e-01 6.07100595e-05 4.76686894e-03 1.99926758e-01
9.01433962e+03 2.04528594e-01 5.90585360e-05 4.54277764e-03 1.99926758e-01
9.01471698e+03 2.04317874e-01 5.74734302e-05 4.33364312e-03 1.99926758e-01
9.01509434e+03 2.04120915e-01 5.59512313e-05 4.13820625e-03 1.99926758e-01
9.01547170e+03 2.03936579e-01 5.44886572e-05 3.95533291e-03 1.99926758e-01
9.01584906e+03 2.03763840e-01 5.30826371e-05 3.78400006e-03 1.99926758e-01
9.01622642e+03 2.03601771e-01 5.17302949e-05 3.62328340e-03 1.99926758e-01
9.01660377e+03 2.03449533e-01 5.04289352e-05 3.47234662e-03 1.99926758e-01
9.01698113e+03 2.03306365e-01 4.91760292e-05 3.33043179e-03 1.99926758e-01
9.01735849e+03 2.03171578e-01 4.79692031e-05 3.19685108e-03 1.99926758e-01
9.01773585e+03 2.03044543e-01 4.68062265e-05 3.07097929e-03 1.99926758e-01
9.01811321e+03 2.02924690e-01 4.56850022e-05 2.95224735e-03 1.99926758e-01
9.01849057e+03 2.02811498e-01 4.46035568e-05 2.84013654e-03 1.99926758e-01
9.01886792e+03 2.02704491e-01 4.35600320e-05 2.73417337e-03 1.99926758e-01
9.01924528e+03 2.02603235e-01 4.25526768e-05 2.63392503e-03 1.99926758e-01
9.01962264e+03 2.02507333e-01 4.15798400e-05 2.53899539e-03 1.99926758e-01
9.02000000e+03 2.02416419e-01 4.06399634e-05 2.44902139e-03 1.99926758e-01
