0.00000e+00 0.00000000e+00
1.00000e+00 0.00000000e+00
2.00000e+00 0.00000000e+00
3.00000e+00 0.00000000e+00
4.00000e+00 0.00000000e+00
5.00000e+00 0.00000000e+00
6.00000e+00 0.00000000e+00
7.00000e+00 0.00000000e+00
8.00000e+00 0.00000000e+00
9.00000e+00 0.00000000e+00
1.00000e+01 0.00000000e+00
1.10000e+01 0.00000000e+00
1.20000e+01 0.00000000e+00
1.30000e+01 0.00000000e+00
1.40000e+01 0.00000000e+00
1.50000e+01 0.00000000e+00
1.60000e+01 0.00000000e+00
1.70000e+01 0.00000000e+00
1.80000e+01 0.00000000e+00
1.90000e+01 0.00000000e+00
2.00000e+01 0.00000000e+00
2.10000e+01 0.00000000e+00
2.20000e+01 0.00000000e+00
2.30000e+01 0.00000000e+00
2.40000e+01 0.00000000e+00
2.50000e+01 0.00000000e+00
2.60000e+01 2.96439388e-323
2.70000e+01 3.34778882e-320
2.80000e+01 4.13975678e-317
2.90000e+01 4.94501049e-314
3.00000e+01 5.70414602e-311
3.10000e+01 6.35396754e-308
3.20000e+01 6.83487048e-305
3.30000e+01 7.09980673e-302
3.40000e+01 7.12186446e-299
3.50000e+01 6.89877246e-296
3.60000e+01 6.45328549e-293
3.70000e+01 5.82935999e-290
3.80000e+01 5.08501003e-287
3.90000e+01 4.28344989e-284
4.00000e+01 3.48438799e-281
4.10000e+01 2.73709749e-278
4.20000e+01 2.07627542e-275
4.30000e+01 1.52093481e-272
4.40000e+01 1.07588828e-269
4.50000e+01 7.34944756e-267
4.60000e+01 4.84811768e-264
4.70000e+01 3.08832182e-261
4.80000e+01 1.89977815e-258
4.90000e+01 1.12853275e-255
5.00000e+01 6.47375684e-253
5.10000e+01 3.58615899e-250
5.20000e+01 1.91837558e-247
5.30000e+01 9.90988638e-245
5.40000e+01 4.94350130e-242
5.50000e+01 2.38139573e-239
5.60000e+01 1.10779507e-236
5.70000e+01 4.97643373e-234
5.80000e+01 2.15877790e-231
5.90000e+01 9.04333544e-229
6.00000e+01 3.65830792e-226
6.10000e+01 1.42910064e-223
6.20000e+01 5.39108665e-221
6.30000e+01 1.96390624e-218
6.40000e+01 6.90869671e-216
6.50000e+01 2.34694248e-213
6.60000e+01 7.69909543e-211
6.70000e+01 2.43897810e-208
6.80000e+01 7.46117175e-206
6.90000e+01 2.20412954e-203
7.00000e+01 6.28779150e-201
7.10000e+01 1.73216831e-198
7.20000e+01 4.60800549e-196
7.30000e+01 1.18376862e-193
7.40000e+01 2.93664603e-191
7.50000e+01 7.03505213e-189
7.60000e+01 1.62747369e-186
7.70000e+01 3.63572959e-184
7.80000e+01 7.84332322e-182
7.90000e+01 1.63395311e-179
8.00000e+01 3.28707798e-177
8.10000e+01 6.38574196e-175
8.20000e+01 1.19796371e-172
8.30000e+01 2.17023568e-170
8.40000e+01 3.79665450e-168
8.50000e+01 6.41395923e-166
8.60000e+01 1.04636271e-163
8.70000e+01 1.64842522e-161
8.80000e+01 2.50776703e-159
8.90000e+01 3.68413949e-157
9.00000e+01 5.22655931e-155
9.10000e+01 7.16022452e-153
9.20000e+01 9.47258122e-151
9.30000e+01 1.21015493e-148
9.40000e+01 1.49294756e-146
9.50000e+01 1.77860320e-144
9.60000e+01 2.04618326e-142
9.70000e+01 2.27321716e-140
9.80000e+01 2.43875551e-138
9.90000e+01 2.52654211e-136
1.00000e+02 2.52764314e-134
1.01000e+02 2.44194521e-132
1.02000e+02 2.27817464e-130
1.03000e+02 2.05243329e-128
1.04000e+02 1.78559116e-126
1.05000e+02 1.50011981e-124
1.06000e+02 1.21702865e-122
1.07000e+02 9.53469052e-121
1.08000e+02 7.21345519e-119
1.09000e+02 5.27000487e-117
1.10000e+02 3.71800213e-115
1.11000e+02 2.53302334e-113
1.12000e+02 1.66647840e-111
1.13000e+02 1.05874440e-109
1.14000e+02 6.49551371e-108
1.15000e+02 3.84828140e-106
1.16000e+02 2.20166419e-104
1.17000e+02 1.21637161e-102
1.18000e+02 6.48951760e-101
1.19000e+02 3.34340888e-99
1.20000e+02 1.66340311e-97
1.21000e+02 7.99165022e-96
1.22000e+02 3.70771518e-94
1.23000e+02 1.66114370e-92
1.24000e+02 7.18685661e-91
1.25000e+02 3.00262916e-89
1.26000e+02 1.21142172e-87
1.27000e+02 4.71976041e-86
1.28000e+02 1.77572411e-84
1.29000e+02 6.45151881e-83
1.30000e+02 2.26349420e-81
1.31000e+02 7.66880585e-80
1.32000e+02 2.50903685e-78
1.33000e+02 7.92715369e-77
1.34000e+02 2.41856885e-75
1.35000e+02 7.12574987e-74
1.36000e+02 2.02737287e-72
1.37000e+02 5.57015947e-71
1.38000e+02 1.47785752e-69
1.39000e+02 3.78641702e-68
1.40000e+02 9.36818075e-67
1.41000e+02 2.23827281e-65
1.42000e+02 5.16418411e-64
1.43000e+02 1.15059201e-62
1.44000e+02 2.47555131e-61
1.45000e+02 5.14343730e-60
1.46000e+02 1.03196723e-58
1.47000e+02 1.99944428e-57
1.48000e+02 3.74096498e-56
1.49000e+02 6.75910075e-55
1.50000e+02 1.17930228e-53
1.51000e+02 1.98697451e-52
1.52000e+02 3.23288602e-51
1.53000e+02 5.07948206e-50
1.54000e+02 7.70689440e-49
1.55000e+02 1.12919859e-47
1.56000e+02 1.59768877e-46
1.57000e+02 2.18295600e-45
1.58000e+02 2.88024028e-44
1.59000e+02 3.66980845e-43
1.60000e+02 4.51532499e-42
1.61000e+02 5.36494868e-41
1.62000e+02 6.15563797e-40
1.63000e+02 6.82042610e-39
1.64000e+02 7.29761395e-38
1.65000e+02 7.54017113e-37
1.66000e+02 7.52337068e-36
1.67000e+02 7.24894255e-35
1.68000e+02 6.74478011e-34
1.69000e+02 6.06026860e-33
1.70000e+02 5.25831854e-32
1.71000e+02 4.40588187e-31
1.72000e+02 3.56491966e-30
1.73000e+02 2.78546422e-29
1.74000e+02 2.10172728e-28
1.75000e+02 1.53139096e-27
1.76000e+02 1.07752347e-26
1.77000e+02 7.32147080e-26
1.78000e+02 4.80397648e-25
1.79000e+02 3.04392782e-24
1.80000e+02 1.86251066e-23
1.81000e+02 1.10051034e-22
1.82000e+02 6.27943289e-22
1.83000e+02 3.46001245e-21
1.84000e+02 1.84105108e-20
1.85000e+02 9.45986539e-20
1.86000e+02 4.69391277e-19
1.87000e+02 2.24913753e-18
1.88000e+02 1.04070574e-17
1.89000e+02 4.65019139e-17
1.90000e+02 2.00652532e-16
1.91000e+02 8.36083019e-16
1.92000e+02 3.36422552e-15
1.93000e+02 1.30722919e-14
1.94000e+02 4.90511638e-14
1.95000e+02 1.77736995e-13
1.96000e+02 6.21923964e-13
1.97000e+02 2.10149175e-12
1.98000e+02 6.85723490e-12
1.99000e+02 2.16073399e-11
2.00000e+02 6.57482991e-11
2.01000e+02 1.93196244e-10
2.02000e+02 5.48205991e-10
2.03000e+02 1.50217253e-09
2.04000e+02 3.97490536e-09
2.05000e+02 1.01569827e-08
2.06000e+02 2.50630297e-08
2.07000e+02 5.97218657e-08
2.08000e+02 1.37424481e-07
2.09000e+02 3.05369587e-07
2.10000e+02 6.55267155e-07
2.11000e+02 1.35781924e-06
2.12000e+02 2.71704265e-06
2.13000e+02 5.25027308e-06
2.14000e+02 9.79711646e-06
2.15000e+02 1.76541002e-05
2.16000e+02 3.07201864e-05
2.17000e+02 5.16217881e-05
2.18000e+02 8.37670424e-05
2.19000e+02 1.31263584e-04
2.20000e+02 1.98630656e-04
2.21000e+02 2.90254683e-04
2.22000e+02 4.09584141e-04
2.23000e+02 5.58133346e-04
2.24000e+02 7.34452559e-04
2.25000e+02 9.33298281e-04
2.26000e+02 1.14527063e-03
2.27000e+02 1.35714647e-03
2.28000e+02 1.55301718e-03
2.29000e+02 1.71615590e-03
2.30000e+02 1.83133652e-03
2.31000e+02 1.88716778e-03
2.32000e+02 1.87794907e-03
2.33000e+02 1.80462948e-03
2.34000e+02 1.67464681e-03
2.35000e+02 1.50068432e-03
2.36000e+02 1.29863292e-03
2.37000e+02 1.08521159e-03
2.38000e+02 8.75736421e-04
2.39000e+02 6.82438406e-04
2.40000e+02 5.13552486e-04
2.41000e+02 3.73197242e-04
2.42000e+02 2.61894956e-04
2.43000e+02 1.77484527e-04
2.44000e+02 1.16163532e-04
2.45000e+02 7.34442312e-05
2.46000e+02 4.48911096e-05
2.47000e+02 2.65934484e-05
2.48000e+02 1.53933264e-05
2.49000e+02 8.92760451e-06
2.50000e+02 5.55333788e-06
2.51000e+02 4.21762764e-06
2.52000e+02 4.31496865e-06
2.53000e+02 5.55588199e-06
2.54000e+02 7.85520128e-06
2.55000e+02 1.12389602e-05
2.56000e+02 1.57653435e-05
2.57000e+02 2.14562574e-05
2.58000e+02 2.82397838e-05
2.59000e+02 3.59079632e-05
2.60000e+02 4.40970328e-05
2.61000e+02 5.22969856e-05
2.62000e+02 5.98935833e-05
2.63000e+02 6.62394206e-05
2.64000e+02 7.07431177e-05
2.65000e+02 7.29596865e-05
2.66000e+02 7.26628971e-05
2.67000e+02 6.98833014e-05
2.68000e+02 6.49030435e-05
2.69000e+02 5.82086668e-05
2.70000e+02 5.04128422e-05
2.71000e+02 4.21624320e-05
2.72000e+02 3.40518777e-05
2.73000e+02 2.65575138e-05
2.74000e+02 2.00015985e-05
2.75000e+02 1.45469832e-05
2.76000e+02 1.02167345e-05
2.77000e+02 6.92918598e-06
2.78000e+02 4.53819621e-06
2.79000e+02 2.87022048e-06
2.80000e+02 1.75298496e-06
2.81000e+02 1.03388459e-06
2.82000e+02 5.88839414e-07
2.83000e+02 3.23856503e-07
2.84000e+02 1.72004304e-07
2.85000e+02 8.82179464e-08
2.86000e+02 4.36923611e-08
2.87000e+02 2.08970521e-08
2.88000e+02 9.65151469e-09
2.89000e+02 4.30464030e-09
2.90000e+02 1.85399773e-09
2.91000e+02 7.71103134e-10
2.92000e+02 3.09703903e-10
2.93000e+02 1.20119034e-10
2.94000e+02 4.49891638e-11
2.95000e+02 1.62717758e-11
2.96000e+02 5.68319977e-12
2.97000e+02 1.91682221e-12
2.98000e+02 6.24312001e-13
2.99000e+02 1.96359752e-13
3.00000e+02 5.96395290e-14
3.01000e+02 1.74922983e-14
3.02000e+02 4.95439338e-15
3.03000e+02 1.35508032e-15
3.04000e+02 3.57907277e-16
3.05000e+02 9.12865847e-17
3.06000e+02 2.24840390e-17
3.07000e+02 5.34776901e-18
3.08000e+02 1.22829276e-18
3.09000e+02 2.72434486e-19
3.10000e+02 5.83516597e-20
3.11000e+02 1.20691111e-20
3.12000e+02 2.41061744e-21
3.13000e+02 4.64956416e-22
3.14000e+02 8.66018433e-23
3.15000e+02 1.55766107e-23
3.16000e+02 2.70551370e-24
3.17000e+02 4.53792641e-25
3.18000e+02 7.35014826e-26
3.19000e+02 1.14965013e-26
3.20000e+02 1.73646668e-27
3.21000e+02 2.53286462e-28
3.22000e+02 3.57460890e-29
3.23000e+02 5.44337624e-30
3.24000e+02 5.36102025e-30
3.25000e+02 3.65391608e-29
3.26000e+02 2.71746017e-28
3.27000e+02 1.95583637e-27
3.28000e+02 1.35941462e-26
3.29000e+02 9.12445837e-26
3.30000e+02 5.91423512e-25
3.31000e+02 3.70192319e-24
3.32000e+02 2.23766324e-23
3.33000e+02 1.30617677e-22
3.34000e+02 7.36293119e-22
3.35000e+02 4.00814154e-21
3.36000e+02 2.10708085e-20
3.37000e+02 1.06971464e-19
3.38000e+02 5.24452948e-19
3.39000e+02 2.48313780e-18
3.40000e+02 1.13541694e-17
3.41000e+02 5.01389895e-17
3.42000e+02 2.13829597e-16
3.43000e+02 8.80723611e-16
3.44000e+02 3.50348254e-15
3.45000e+02 1.34604415e-14
3.46000e+02 4.99493816e-14
3.47000e+02 1.79030515e-13
3.48000e+02 6.19822637e-13
3.49000e+02 2.07286776e-12
3.50000e+02 6.69674110e-12
3.51000e+02 2.09012042e-11
3.52000e+02 6.30271980e-11
3.53000e+02 1.83642086e-10
3.54000e+02 5.17069691e-10
3.55000e+02 1.40705527e-09
3.56000e+02 3.70100337e-09
3.57000e+02 9.41119283e-09
3.58000e+02 2.31402517e-08
3.59000e+02 5.50278987e-08
3.60000e+02 1.26588843e-07
3.61000e+02 2.81790087e-07
3.62000e+02 6.07167515e-07
3.63000e+02 1.26675774e-06
3.64000e+02 2.56003086e-06
3.65000e+02 5.01350565e-06
3.66000e+02 9.51858444e-06
3.67000e+02 1.75281657e-05
3.68000e+02 3.13211103e-05
3.69000e+02 5.43346627e-05
3.70000e+02 9.15485094e-05
3.71000e+02 1.49879016e-04
3.72000e+02 2.38508677e-04
3.73000e+02 3.69037229e-04
3.74000e+02 5.55304788e-04
3.75000e+02 8.12716821e-04
3.76000e+02 1.15691357e-03
3.77000e+02 1.60169250e-03
3.78000e+02 2.15622576e-03
3.79000e+02 2.82181415e-03
3.80000e+02 3.58865700e-03
3.81000e+02 4.43333389e-03
3.82000e+02 5.31780524e-03
3.83000e+02 6.19065961e-03
3.84000e+02 6.99101451e-03
3.85000e+02 7.65493577e-03
3.86000e+02 8.12358734e-03
3.87000e+02 8.35173985e-03
3.88000e+02 8.31495504e-03
3.89000e+02 8.01386825e-03
3.90000e+02 7.47453637e-03
3.91000e+02 6.74467900e-03
3.92000e+02 5.88657468e-03
3.93000e+02 4.96810842e-03
3.94000e+02 4.05379176e-03
3.95000e+02 3.19742088e-03
3.96000e+02 2.43748619e-03
3.97000e+02 1.79569808e-03
3.98000e+02 1.27827956e-03
3.99000e+02 8.79182659e-04
4.00000e+02 5.84195737e-04
4.01000e+02 3.75002376e-04
4.02000e+02 2.32530957e-04
4.03000e+02 1.39276293e-04
4.04000e+02 8.05758767e-05
4.05000e+02 4.50244930e-05
4.06000e+02 2.42993946e-05
4.07000e+02 1.26658340e-05
4.08000e+02 6.37608992e-06
4.09000e+02 3.09991236e-06
4.10000e+02 1.45549931e-06
4.11000e+02 6.59988699e-07
4.12000e+02 2.89013472e-07
4.13000e+02 1.22222933e-07
4.14000e+02 4.99156693e-08
4.15000e+02 1.96864669e-08
4.16000e+02 7.49795606e-09
4.17000e+02 2.75778344e-09
4.18000e+02 9.79530216e-10
4.19000e+02 3.35980791e-10
4.20000e+02 1.11288104e-10
4.21000e+02 3.55975145e-11
4.22000e+02 1.09957878e-11
4.23000e+02 3.27995603e-12
4.24000e+02 9.44809074e-13
4.25000e+02 2.62817281e-13
4.26000e+02 7.05987741e-14
4.27000e+02 1.83135879e-14
4.28000e+02 4.58757486e-15
4.29000e+02 1.10979099e-15
4.30000e+02 2.59452360e-16
4.31000e+02 5.94763562e-17
4.32000e+02 1.71979165e-17
4.33000e+02 2.19359852e-17
4.34000e+02 8.08513767e-17
4.35000e+02 3.23527825e-16
4.36000e+02 1.25782757e-15
4.37000e+02 4.72379746e-15
4.38000e+02 1.71316301e-14
4.39000e+02 5.99980806e-14
4.40000e+02 2.02911649e-13
4.41000e+02 6.62685617e-13
4.42000e+02 2.08996517e-12
4.43000e+02 6.36504522e-12
4.44000e+02 1.87195273e-11
4.45000e+02 5.31641900e-11
4.46000e+02 1.45805688e-10
4.47000e+02 3.86154118e-10
4.48000e+02 9.87592571e-10
4.49000e+02 2.43907918e-09
4.50000e+02 5.81707848e-09
4.51000e+02 1.33972261e-08
4.52000e+02 2.97958508e-08
4.53000e+02 6.39922876e-08
4.54000e+02 1.32718181e-07
4.55000e+02 2.65805611e-07
4.56000e+02 5.14077751e-07
4.57000e+02 9.60117560e-07
4.58000e+02 1.73161348e-06
4.59000e+02 3.01584100e-06
4.60000e+02 5.07220579e-06
4.61000e+02 8.23789457e-06
4.62000e+02 1.29201196e-05
4.63000e+02 1.95680603e-05
4.64000e+02 2.86193630e-05
4.65000e+02 4.04206308e-05
4.66000e+02 5.51286238e-05
4.67000e+02 7.26076123e-05
4.68000e+02 9.23460023e-05
4.69000e+02 1.13418783e-04
4.70000e+02 1.34518745e-04
4.71000e+02 1.54067690e-04
4.72000e+02 1.70400662e-04
4.73000e+02 1.81996033e-04
4.74000e+02 1.87708312e-04
4.75000e+02 1.86954546e-04
4.76000e+02 1.79812340e-04
4.77000e+02 1.67006701e-04
4.78000e+02 1.49788766e-04
4.79000e+02 1.29734513e-04
4.80000e+02 1.08508248e-04
4.81000e+02 8.76397067e-05
4.82000e+02 6.83549579e-05
4.83000e+02 5.14837375e-05
4.84000e+02 3.74456234e-05
4.85000e+02 2.63004425e-05
4.86000e+02 1.78384138e-05
4.87000e+02 1.16837308e-05
4.88000e+02 7.38998306e-06
4.89000e+02 4.51401764e-06
4.90000e+02 2.66343764e-06
4.91000e+02 1.51972415e-06
4.92000e+02 8.42980960e-07
4.93000e+02 4.65726485e-07
4.94000e+02 2.82856102e-07
4.95000e+02 2.43958287e-07
4.96000e+02 3.53525128e-07
4.97000e+02 6.84837644e-07
4.98000e+02 1.41455340e-06
4.99000e+02 2.88685158e-06
5.00000e+02 5.71730135e-06
5.01000e+02 1.09455495e-05
5.02000e+02 2.02399409e-05
5.03000e+02 3.61436182e-05
5.04000e+02 6.23288476e-05
5.05000e+02 1.03795465e-04
5.06000e+02 1.66916313e-04
5.07000e+02 2.59209053e-04
5.08000e+02 3.88716071e-04
5.09000e+02 5.62918820e-04
5.10000e+02 7.87208874e-04
5.11000e+02 1.06307801e-03
5.12000e+02 1.38634470e-03
5.13000e+02 1.74585535e-03
5.14000e+02 2.12312826e-03
5.15000e+02 2.49330349e-03
5.16000e+02 2.82751552e-03
5.17000e+02 3.09646225e-03
5.18000e+02 3.27459446e-03
5.19000e+02 3.34410723e-03
5.20000e+02 3.29787210e-03
5.21000e+02 3.14064147e-03
5.22000e+02 2.88824382e-03
5.23000e+02 2.56495816e-03
5.24000e+02 2.19967064e-03
5.25000e+02 1.82165433e-03
5.26000e+02 1.45681775e-03
5.27000e+02 1.12505931e-03
5.28000e+02 8.39028184e-04
5.29000e+02 6.04238818e-04
5.30000e+02 4.20215081e-04
5.31000e+02 2.82205574e-04
5.32000e+02 1.83016599e-04
5.33000e+02 1.14616281e-04
5.34000e+02 6.93159350e-05
5.35000e+02 4.04809596e-05
5.36000e+02 2.28296604e-05
5.37000e+02 1.24330890e-05
5.38000e+02 6.53867237e-06
5.39000e+02 3.32071077e-06
5.40000e+02 1.62855890e-06
5.41000e+02 7.71270757e-07
5.42000e+02 3.52729235e-07
5.43000e+02 1.55778943e-07
5.44000e+02 6.64384101e-08
5.45000e+02 2.73681479e-08
5.46000e+02 1.09015692e-08
5.47000e+02 4.23250050e-09
5.48000e+02 1.68720142e-09
5.49000e+02 8.95727808e-10
5.50000e+02 1.00801239e-09
5.51000e+02 1.95184074e-09
5.52000e+02 4.23760556e-09
5.53000e+02 9.10314122e-09
5.54000e+02 1.89516475e-08
5.55000e+02 3.81204984e-08
5.56000e+02 7.40514562e-08
5.57000e+02 1.38913441e-07
5.58000e+02 2.51643983e-07
5.59000e+02 4.40209966e-07
5.60000e+02 7.43642401e-07
5.61000e+02 1.21310770e-06
5.62000e+02 1.91102125e-06
5.63000e+02 2.90711769e-06
5.64000e+02 4.27061725e-06
5.65000e+02 6.05828398e-06
5.66000e+02 8.29926331e-06
5.67000e+02 1.09789397e-05
5.68000e+02 1.40253012e-05
5.69000e+02 1.73019452e-05
5.70000e+02 2.06114531e-05
5.71000e+02 2.37111832e-05
5.72000e+02 2.63407892e-05
5.73000e+02 2.82576004e-05
5.74000e+02 2.92733696e-05
5.75000e+02 2.92847211e-05
5.76000e+02 2.82904861e-05
5.77000e+02 2.63919005e-05
5.78000e+02 2.37756206e-05
5.79000e+02 2.06834985e-05
5.80000e+02 1.73758907e-05
5.81000e+02 1.40961688e-05
5.82000e+02 1.10429740e-05
5.83000e+02 8.35414377e-06
5.84000e+02 6.10307605e-06
5.85000e+02 4.30552939e-06
5.86000e+02 2.93315677e-06
5.87000e+02 1.92963396e-06
5.88000e+02 1.22587319e-06
5.89000e+02 7.52050783e-07
5.90000e+02 4.45533253e-07
5.91000e+02 2.54886158e-07
5.92000e+02 1.40817270e-07
5.93000e+02 7.51393986e-08
5.94000e+02 3.87536253e-08
5.95000e+02 1.94020915e-08
5.96000e+02 9.65338665e-09
5.97000e+02 5.34945234e-09
5.98000e+02 4.60117694e-09
5.99000e+02 7.37924353e-09
6.00000e+02 1.58020906e-08
6.01000e+02 3.53666718e-08
6.02000e+02 7.75920024e-08
6.03000e+02 1.64830669e-07
6.04000e+02 3.38296191e-07
6.05000e+02 6.70538631e-07
6.06000e+02 1.28347652e-06
6.07000e+02 2.37237939e-06
6.08000e+02 4.23459129e-06
6.09000e+02 7.29910873e-06
6.10000e+02 1.21495198e-05
6.11000e+02 1.95289698e-05
6.12000e+02 3.03131099e-05
6.13000e+02 4.54373083e-05
6.14000e+02 6.57696661e-05
6.15000e+02 9.19326159e-05
6.16000e+02 1.24092216e-04
6.17000e+02 1.61752276e-04
6.18000e+02 2.03604420e-04
6.19000e+02 2.47488454e-04
6.20000e+02 2.90505008e-04
6.21000e+02 3.29293565e-04
6.22000e+02 3.60448984e-04
6.23000e+02 3.81009063e-04
6.24000e+02 3.88917735e-04
6.25000e+02 3.83363824e-04
6.26000e+02 3.64918138e-04
6.27000e+02 3.35436804e-04
6.28000e+02 2.97753525e-04
6.29000e+02 2.55231371e-04
6.30000e+02 2.11272093e-04
6.31000e+02 1.68881141e-04
6.32000e+02 1.30362031e-04
6.33000e+02 9.71744335e-05
6.34000e+02 6.99493783e-05
6.35000e+02 4.86235473e-05
6.36000e+02 3.26392643e-05
6.37000e+02 2.11575328e-05
6.38000e+02 1.32440442e-05
6.39000e+02 8.00584475e-06
6.40000e+02 4.67331059e-06
6.41000e+02 2.63434752e-06
6.42000e+02 1.43401082e-06
6.43000e+02 7.53811448e-07
6.44000e+02 3.82651984e-07
6.45000e+02 1.87575516e-07
6.46000e+02 8.87931109e-08
6.47000e+02 4.05894656e-08
6.48000e+02 1.79175380e-08
6.49000e+02 7.63790541e-09
6.50000e+02 3.14413479e-09
6.51000e+02 1.24985312e-09
6.52000e+02 4.79786185e-10
6.53000e+02 1.77855557e-10
6.54000e+02 6.36675417e-11
6.55000e+02 2.20089672e-11
6.56000e+02 7.34703626e-12
6.57000e+02 2.36840323e-12
6.58000e+02 7.37275913e-13
6.59000e+02 2.21633491e-13
6.60000e+02 6.43386091e-14
6.61000e+02 1.80359445e-14
6.62000e+02 4.88244152e-15
6.63000e+02 1.27633933e-15
6.64000e+02 3.22200487e-16
6.65000e+02 7.85447522e-17
6.66000e+02 1.84900930e-17
6.67000e+02 4.20331518e-18
6.68000e+02 9.22732373e-19
6.69000e+02 1.95609750e-19
6.70000e+02 4.00438826e-20
6.71000e+02 7.91612787e-21
6.72000e+02 1.51119449e-21
6.73000e+02 2.78585728e-22
6.74000e+02 4.95939049e-23
6.75000e+02 8.52567328e-24
6.76000e+02 1.41533748e-24
6.77000e+02 2.26893612e-25
6.78000e+02 3.51249302e-26
6.79000e+02 5.25097093e-27
6.80000e+02 7.58044858e-28
6.81000e+02 1.05680573e-28
6.82000e+02 1.42583716e-29
6.83000e+02 2.12872453e-30
6.84000e+02 2.59415312e-30
6.85000e+02 1.93197952e-29
6.86000e+02 1.52161232e-28
6.87000e+02 1.15891337e-27
6.88000e+02 8.52389312e-27
6.89000e+02 6.05419067e-26
6.90000e+02 4.15245692e-25
6.91000e+02 2.75033197e-24
6.92000e+02 1.75912231e-23
6.93000e+02 1.08652043e-22
6.94000e+02 6.48053260e-22
6.95000e+02 3.73262569e-21
6.96000e+02 2.07610408e-20
6.97000e+02 1.11510238e-19
6.98000e+02 5.78377388e-19
6.99000e+02 2.89693538e-18
7.00000e+02 1.40119071e-17
7.01000e+02 6.54465310e-17
7.02000e+02 2.95193612e-16
7.03000e+02 1.28575499e-15
7.04000e+02 5.40804659e-15
7.05000e+02 2.19661311e-14
7.06000e+02 8.61584070e-14
7.07000e+02 3.26341792e-13
7.08000e+02 1.19365459e-12
7.09000e+02 4.21614555e-12
7.10000e+02 1.43808140e-11
7.11000e+02 4.73676998e-11
7.12000e+02 1.50664898e-10
7.13000e+02 4.62778135e-10
7.14000e+02 1.37266500e-09
7.15000e+02 3.93176251e-09
7.16000e+02 1.08752940e-08
7.17000e+02 2.90486383e-08
7.18000e+02 7.49275670e-08
7.19000e+02 1.86633079e-07
7.20000e+02 4.48917806e-07
7.21000e+02 1.04274082e-06
7.22000e+02 2.33893098e-06
7.23000e+02 5.06629122e-06
7.24000e+02 1.05972925e-05
7.25000e+02 2.14058341e-05
7.26000e+02 4.17544217e-05
7.27000e+02 7.86514509e-05
7.28000e+02 1.43069207e-04
7.29000e+02 2.51317357e-04
7.30000e+02 4.26322332e-04
7.31000e+02 6.98387331e-04
7.32000e+02 1.10484678e-03
7.33000e+02 1.68795899e-03
7.34000e+02 2.49049279e-03
7.35000e+02 3.54883277e-03
7.36000e+02 4.88406411e-03
7.37000e+02 6.49230877e-03
7.38000e+02 8.33635619e-03
7.39000e+02 1.03410672e-02
7.40000e+02 1.23948434e-02
7.41000e+02 1.43584966e-02
7.42000e+02 1.60812186e-02
7.43000e+02 1.74214214e-02
7.44000e+02 1.82685697e-02
7.45000e+02 1.85613469e-02
7.46000e+02 1.82979631e-02
7.47000e+02 1.75360958e-02
7.48000e+02 1.63824144e-02
7.49000e+02 1.49741289e-02
7.50000e+02 1.34567770e-02
7.51000e+02 1.19630082e-02
7.52000e+02 1.05963723e-02
7.53000e+02 9.42243587e-03
7.54000e+02 8.46754164e-03
7.55000e+02 7.72383998e-03
7.56000e+02 7.15826194e-03
7.57000e+02 6.72296115e-03
7.58000e+02 6.36523355e-03
7.59000e+02 6.03567875e-03
7.60000e+02 5.69407375e-03
7.61000e+02 5.31290554e-03
7.62000e+02 4.87873664e-03
7.63000e+02 4.39165851e-03
7.64000e+02 3.86314198e-03
7.65000e+02 3.31269248e-03
7.66000e+02 2.76384904e-03
7.67000e+02 2.24016277e-03
7.68000e+02 1.76178006e-03
7.69000e+02 1.34310969e-03
7.70000e+02 9.91798904e-04
7.71000e+02 7.08956567e-04
7.72000e+02 4.90325632e-04
7.73000e+02 3.27979483e-04
7.74000e+02 2.12113663e-04
7.75000e+02 1.32599254e-04
7.76000e+02 8.01081832e-05
7.77000e+02 4.67634784e-05
7.78000e+02 2.63739929e-05
7.79000e+02 1.43694625e-05
7.80000e+02 7.56251405e-06
7.81000e+02 3.84437339e-06
7.82000e+02 1.88754368e-06
7.83000e+02 8.95083296e-07
7.84000e+02 4.09931587e-07
7.85000e+02 1.81313501e-07
7.86000e+02 7.74481976e-08
7.87000e+02 3.19483381e-08
7.88000e+02 1.27272903e-08
7.89000e+02 4.89634459e-09
7.90000e+02 1.81915711e-09
7.91000e+02 6.52972098e-10
7.92000e+02 2.27278452e-10
7.93000e+02 7.94530374e-11
7.94000e+02 3.63922856e-11
7.95000e+02 4.38935949e-11
7.96000e+02 1.08588771e-10
7.97000e+02 3.01488784e-10
7.98000e+02 8.22332883e-10
7.99000e+02 2.16985630e-09
8.00000e+02 5.52999953e-09
8.01000e+02 1.36100075e-08
8.02000e+02 3.23462114e-08
8.03000e+02 7.42368443e-08
8.04000e+02 1.64530544e-07
8.05000e+02 3.52131199e-07
8.06000e+02 7.27768774e-07
8.07000e+02 1.45249040e-06
8.08000e+02 2.79939422e-06
8.09000e+02 5.21009682e-06
8.10000e+02 9.36393663e-06
8.11000e+02 1.62518228e-05
8.12000e+02 2.72380887e-05
8.13000e+02 4.40841145e-05
8.14000e+02 6.88998941e-05
8.15000e+02 1.03988647e-04
8.16000e+02 1.51559875e-04
8.17000e+02 2.13311117e-04
8.18000e+02 2.89917000e-04
8.19000e+02 3.80508896e-04
8.20000e+02 4.82266268e-04
8.21000e+02 5.90255305e-04
8.22000e+02 6.97627916e-04
8.23000e+02 7.96230378e-04
8.24000e+02 8.77575671e-04
8.25000e+02 9.34031122e-04
8.26000e+02 9.59995195e-04
8.27000e+02 9.52813082e-04
8.28000e+02 9.13223973e-04
8.29000e+02 8.45235707e-04
8.30000e+02 7.55456231e-04
8.31000e+02 6.52036218e-04
8.32000e+02 5.43456856e-04
8.33000e+02 4.37410661e-04
8.34000e+02 3.39973132e-04
8.35000e+02 2.55170678e-04
8.36000e+02 1.84947251e-04
8.37000e+02 1.29448175e-04
8.38000e+02 8.74933257e-05
8.39000e+02 5.71064097e-05
8.40000e+02 3.59936367e-05
8.41000e+02 2.19077381e-05
8.42000e+02 1.28765730e-05
8.43000e+02 7.30859649e-06
8.44000e+02 4.00588629e-06
8.45000e+02 2.12028475e-06
8.46000e+02 1.08372902e-06
8.47000e+02 5.34906843e-07
8.48000e+02 2.54956768e-07
8.49000e+02 1.17350752e-07
8.50000e+02 5.21598279e-08
8.51000e+02 2.23881064e-08
8.52000e+02 9.27960563e-09
8.53000e+02 3.71426309e-09
8.54000e+02 1.43564552e-09
8.55000e+02 5.35867790e-10
8.56000e+02 1.93174779e-10
8.57000e+02 6.73300208e-11
8.58000e+02 2.29517905e-11
8.59000e+02 8.53328029e-12
8.60000e+02 6.21010995e-12
8.61000e+02 1.30199157e-11
8.62000e+02 3.77039981e-11
8.63000e+02 1.10250483e-10
8.64000e+02 3.12696623e-10
8.65000e+02 8.56804679e-10
8.66000e+02 2.26719772e-09
8.67000e+02 5.79335190e-09
8.68000e+02 1.42955845e-08
8.69000e+02 3.40647651e-08
8.70000e+02 7.83863599e-08
8.71000e+02 1.74183665e-07
8.72000e+02 3.73771733e-07
8.73000e+02 7.74529482e-07
8.74000e+02 1.54989543e-06
8.75000e+02 2.99502472e-06
8.76000e+02 5.58898337e-06
8.77000e+02 1.00716515e-05
8.78000e+02 1.75269136e-05
8.79000e+02 2.94543155e-05
8.80000e+02 4.78006264e-05
8.81000e+02 7.49139324e-05
8.82000e+02 1.13380962e-04
8.83000e+02 1.65718769e-04
8.84000e+02 2.33918444e-04
8.85000e+02 3.18880428e-04
8.86000e+02 4.19830746e-04
8.87000e+02 5.33850635e-04
8.88000e+02 6.55670436e-04
8.89000e+02 7.77856421e-04
8.90000e+02 8.91450969e-04
8.91000e+02 9.87022106e-04
8.92000e+02 1.05596425e-03
8.93000e+02 1.09180342e-03
8.94000e+02 1.09122992e-03
8.95000e+02 1.05462624e-03
8.96000e+02 9.85969485e-04
8.97000e+02 8.92135379e-04
8.98000e+02 7.81769656e-04
8.99000e+02 6.63982144e-04
9.00000e+02 5.47134959e-04
9.01000e+02 4.37941258e-04
9.02000e+02 3.40988950e-04
9.03000e+02 2.58690483e-04
9.04000e+02 1.91568686e-04
9.05000e+02 1.38739928e-04
9.06000e+02 9.84527384e-05
9.07000e+02 6.85712361e-05
9.08000e+02 4.69401602e-05
9.09000e+02 3.16144248e-05
9.10000e+02 2.09695099e-05
9.11000e+02 1.37258107e-05
9.12000e+02 8.92251095e-06
9.13000e+02 5.86995239e-06
9.14000e+02 4.09937233e-06
9.15000e+02 3.31925875e-06
9.16000e+02 3.38037346e-06
9.17000e+02 4.24708368e-06
9.18000e+02 5.97058292e-06
9.19000e+02 8.65931269e-06
9.20000e+02 1.24430640e-05
9.21000e+02 1.74296626e-05
9.22000e+02 2.36565732e-05
9.23000e+02 3.10435979e-05
9.24000e+02 3.93560651e-05
9.25000e+02 4.81892085e-05
9.26000e+02 5.69827113e-05
9.27000e+02 6.50692923e-05
9.28000e+02 7.17535074e-05
9.29000e+02 7.64086023e-05
9.30000e+02 7.85728895e-05
9.31000e+02 7.80250907e-05
9.32000e+02 7.48215740e-05
9.33000e+02 6.92867803e-05
9.34000e+02 6.19590771e-05
9.35000e+02 5.35045448e-05
9.36000e+02 4.46177927e-05
9.37000e+02 3.59301272e-05
9.38000e+02 2.79413733e-05
9.39000e+02 2.09841357e-05
9.40000e+02 1.52208740e-05
9.41000e+02 1.06672959e-05
9.42000e+02 7.23177392e-06
9.43000e+02 4.76006421e-06
9.44000e+02 3.07678329e-06
9.45000e+02 2.01858169e-06
9.46000e+02 1.45739561e-06
9.47000e+02 1.31461737e-06
9.48000e+02 1.56808395e-06
9.49000e+02 2.25353164e-06
9.50000e+02 3.46104885e-06
9.51000e+02 5.32571118e-06
9.52000e+02 8.01068013e-06
9.53000e+02 1.16811658e-05
9.54000e+02 1.64691283e-05
9.55000e+02 2.24313509e-05
9.56000e+02 2.95069708e-05
9.57000e+02 3.74836278e-05
9.58000e+02 4.59827413e-05
9.59000e+02 5.44729273e-05
9.60000e+02 6.23157804e-05
9.61000e+02 6.88408887e-05
9.62000e+02 7.34388540e-05
9.63000e+02 7.56547622e-05
9.64000e+02 7.52623189e-05
9.65000e+02 7.23019252e-05
9.66000e+02 6.70738242e-05
9.67000e+02 6.00879261e-05
9.68000e+02 5.19819183e-05
9.69000e+02 4.34258501e-05
9.70000e+02 3.50328360e-05
9.71000e+02 2.72918643e-05
9.72000e+02 2.05315648e-05
9.73000e+02 1.49156382e-05
9.74000e+02 1.04638761e-05
9.75000e+02 7.08882682e-06
9.76000e+02 4.63753880e-06
9.77000e+02 2.92977436e-06
9.78000e+02 1.78741286e-06
9.79000e+02 1.05321224e-06
9.80000e+02 5.99796367e-07
9.81000e+02 3.31319633e-07
9.82000e+02 1.80832857e-07
9.83000e+02 1.06333109e-07
9.84000e+02 8.83616539e-08
9.85000e+02 1.32390034e-07
9.86000e+02 2.80691036e-07
9.87000e+02 6.41536454e-07
9.88000e+02 1.44897503e-06
9.89000e+02 3.17444419e-06
9.90000e+02 6.72161539e-06
9.91000e+02 1.37461275e-05
9.92000e+02 2.71475875e-05
9.93000e+02 5.17744579e-05
9.94000e+02 9.53523267e-05
9.95000e+02 1.69581338e-04
9.96000e+02 2.91243190e-04
9.97000e+02 4.83019255e-04
9.98000e+02 7.73577891e-04
9.99000e+02 1.19639501e-03
1.00000e+03 1.78680056e-03
1.00100e+03 2.57696490e-03
1.00200e+03 3.58898687e-03
1.00300e+03 4.82687635e-03
1.00400e+03 6.26890111e-03
1.00500e+03 7.86226367e-03
1.00600e+03 9.52214365e-03
1.00700e+03 1.11366044e-02
1.00800e+03 1.25777164e-02
1.00900e+03 1.37177140e-02
1.01000e+03 1.44474975e-02
1.01100e+03 1.46938112e-02
1.01200e+03 1.44313586e-02
1.01300e+03 1.36870837e-02
1.01400e+03 1.25356128e-02
1.01500e+03 1.10869261e-02
1.01600e+03 9.46907768e-03
1.01700e+03 7.80971426e-03
1.01800e+03 6.22004533e-03
1.01900e+03 4.78390883e-03
1.02000e+03 3.55306522e-03
1.02100e+03 2.54832259e-03
1.02200e+03 1.76496692e-03
1.02300e+03 1.18045565e-03
1.02400e+03 7.62419016e-04
1.02500e+03 4.75519909e-04
1.02600e+03 2.86401066e-04
1.02700e+03 1.66575642e-04
1.02800e+03 9.35576491e-05
1.02900e+03 5.07432226e-05
1.03000e+03 2.65771086e-05
1.03100e+03 1.34421382e-05
1.03200e+03 6.56538080e-06
1.03300e+03 3.09658086e-06
1.03400e+03 1.41037912e-06
1.03500e+03 6.20326388e-07
1.03600e+03 2.63472675e-07
1.03700e+03 1.08064201e-07
1.03800e+03 4.28015061e-08
1.03900e+03 1.63706980e-08
1.04000e+03 6.04653096e-09
1.04100e+03 2.15663330e-09
1.04200e+03 7.42809195e-10
1.04300e+03 2.47063834e-10
1.04400e+03 7.93545844e-11
1.04500e+03 2.46130711e-11
1.04600e+03 7.37208836e-12
1.04700e+03 2.13228964e-12
1.04800e+03 5.95569984e-13
1.04900e+03 1.60638761e-13
1.05000e+03 4.18406894e-14
1.05100e+03 1.05239374e-14
1.05200e+03 2.55616347e-15
1.05300e+03 5.99556311e-16
1.05400e+03 1.35801143e-16
1.05500e+03 2.97054317e-17
1.05600e+03 6.28465056e-18
1.05700e+03 1.33290021e-18
1.05800e+03 5.07037818e-19
1.05900e+03 1.22783442e-18
1.06000e+03 5.28121519e-18
1.06100e+03 2.27529127e-17
1.06200e+03 9.48063527e-17
1.06300e+03 3.81501484e-16
1.06400e+03 1.48247402e-15
1.06500e+03 5.56299844e-15
1.06600e+03 2.01586631e-14
1.06700e+03 7.05416241e-14
1.06800e+03 2.38374680e-13
1.06900e+03 7.77867687e-13
1.07000e+03 2.45121993e-12
1.07100e+03 7.45915733e-12
1.07200e+03 2.19193765e-11
1.07300e+03 6.22010282e-11
1.07400e+03 1.70450340e-10
1.07500e+03 4.51054604e-10
1.07600e+03 1.15263369e-09
1.07700e+03 2.84435918e-09
1.07800e+03 6.77810832e-09
1.07900e+03 1.55978060e-08
1.08000e+03 3.46616683e-08
1.08100e+03 7.43817428e-08
1.08200e+03 1.54139582e-07
1.08300e+03 3.08455804e-07
1.08400e+03 5.96077398e-07
1.08500e+03 1.11235472e-06
1.08600e+03 2.00454076e-06
1.08700e+03 3.48832885e-06
1.08800e+03 5.86206848e-06
1.08900e+03 9.51295179e-06
1.09000e+03 1.49077000e-05
1.09100e+03 2.25598876e-05
1.09200e+03 3.29681183e-05
1.09300e+03 4.65245658e-05
1.09400e+03 6.34017780e-05
1.09500e+03 8.34356177e-05
1.09600e+03 1.06030906e-04
1.09700e+03 1.30120104e-04
1.09800e+03 1.54201028e-04
1.09900e+03 1.76466015e-04
1.10000e+03 1.95014016e-04
1.10100e+03 2.08114105e-04
1.10200e+03 2.14470786e-04
1.10300e+03 2.13435036e-04
1.10400e+03 2.05113488e-04
1.10500e+03 1.90350345e-04
1.10600e+03 1.70586263e-04
1.10700e+03 1.47626861e-04
1.10800e+03 1.23372298e-04
1.10900e+03 9.95636619e-05
1.11000e+03 7.75916540e-05
1.11100e+03 5.83929072e-05
1.11200e+03 4.24361647e-05
1.11300e+03 2.97812618e-05
1.11400e+03 2.01827808e-05
1.11500e+03 1.32083890e-05
1.11600e+03 8.34736952e-06
1.11700e+03 5.09425133e-06
1.11800e+03 3.00221670e-06
1.11900e+03 1.70857735e-06
1.12000e+03 9.38984001e-07
1.12100e+03 4.98325006e-07
1.12200e+03 2.55386602e-07
1.12300e+03 1.26390513e-07
1.12400e+03 6.04034559e-08
1.12500e+03 2.78766153e-08
1.12600e+03 1.24236524e-08
1.12700e+03 5.34675128e-09
1.12800e+03 2.22211309e-09
1.12900e+03 8.91896754e-10
1.13000e+03 3.45994465e-10
1.13100e+03 1.30630975e-10
1.13200e+03 5.09614641e-11
1.13300e+03 2.96820410e-11
1.13400e+03 4.64414920e-11
1.13500e+03 1.22890562e-10
1.13600e+03 3.46459131e-10
1.13700e+03 9.54230928e-10
1.13800e+03 2.54123382e-09
1.13900e+03 6.53624369e-09
1.14000e+03 1.62348977e-08
1.14100e+03 3.89405931e-08
1.14200e+03 9.01958571e-08
1.14300e+03 2.01744436e-07
1.14400e+03 4.35760123e-07
1.14500e+03 9.08917243e-07
1.14600e+03 1.83076306e-06
1.14700e+03 3.56099102e-06
1.14800e+03 6.68868212e-06
1.14900e+03 1.21322451e-05
1.15000e+03 2.12506752e-05
1.15100e+03 3.59447305e-05
1.15200e+03 5.87122431e-05
1.15300e+03 9.26089704e-05
1.15400e+03 1.41061464e-04
1.15500e+03 2.07488806e-04
1.15600e+03 2.94721578e-04
1.15700e+03 4.04259481e-04
1.15800e+03 5.35475513e-04
1.15900e+03 6.84936583e-04
1.16000e+03 8.46044036e-04
1.16100e+03 1.00917989e-03
1.16200e+03 1.16246486e-03
1.16300e+03 1.29310146e-03
1.16400e+03 1.38912144e-03
1.16500e+03 1.44122821e-03
1.16600e+03 1.44436887e-03
1.16700e+03 1.39871563e-03
1.16800e+03 1.30987915e-03
1.16900e+03 1.18837936e-03
1.17000e+03 1.04860085e-03
1.17100e+03 9.07594961e-04
1.17200e+03 7.84111032e-04
1.17300e+03 6.98129965e-04
1.17400e+03 6.70955859e-04
1.17500e+03 7.25648594e-04
1.17600e+03 8.87325777e-04
1.17700e+03 1.18270605e-03
1.17800e+03 1.63828028e-03
1.17900e+03 2.27672929e-03
1.18000e+03 3.11165722e-03
1.18100e+03 4.14131060e-03
1.18200e+03 5.34256244e-03
1.18300e+03 6.66685795e-03
1.18400e+03 8.03984003e-03
1.18500e+03 9.36586816e-03
1.18600e+03 1.05376355e-02
1.18700e+03 1.14497865e-02
1.18800e+03 1.20142040e-02
1.18900e+03 1.21738817e-02
1.19000e+03 1.19123250e-02
1.19100e+03 1.12563091e-02
1.19200e+03 1.02713352e-02
1.19300e+03 9.05084133e-03
1.19400e+03 7.70161903e-03
1.19500e+03 6.32857738e-03
1.19600e+03 5.02181969e-03
1.19700e+03 3.84810651e-03
1.19800e+03 2.84750173e-03
1.19900e+03 2.03475372e-03
1.20000e+03 1.40407610e-03
1.20100e+03 9.35621905e-04
1.20200e+03 6.02061777e-04
1.20300e+03 3.74121504e-04
1.20400e+03 2.24499422e-04
1.20500e+03 1.30091440e-04
1.20600e+03 7.27969457e-05
1.20700e+03 3.93376610e-05
1.20800e+03 2.05274427e-05
1.20900e+03 1.03440856e-05
1.21000e+03 5.03361853e-06
1.21100e+03 2.36537191e-06
1.21200e+03 1.07337014e-06
1.21300e+03 4.70360156e-07
1.21400e+03 1.99040971e-07
1.21500e+03 8.13364806e-08
1.21600e+03 3.20966135e-08
1.21700e+03 1.22310569e-08
1.21800e+03 4.50090352e-09
1.21900e+03 1.59943413e-09
1.22000e+03 5.48862999e-10
1.22100e+03 1.81883160e-10
1.22200e+03 5.82038864e-11
1.22300e+03 1.79863350e-11
1.22400e+03 5.36745495e-12
1.22500e+03 1.54699575e-12
1.22600e+03 4.31560240e-13
1.22700e+03 1.20433906e-13
1.22800e+03 4.93671877e-14
1.22900e+03 8.33951777e-14
1.23000e+03 2.89102365e-13
1.23100e+03 1.05083781e-12
1.23200e+03 3.70897044e-12
1.23300e+03 1.26460847e-11
1.23400e+03 4.16389345e-11
1.23500e+03 1.32395955e-10
1.23600e+03 4.06518984e-10
1.23700e+03 1.20536316e-09
1.23800e+03 3.45132587e-09
1.23900e+03 9.54300154e-09
1.24000e+03 2.54809139e-08
1.24100e+03 6.57016069e-08
1.24200e+03 1.63594227e-07
1.24300e+03 3.93360690e-07
1.24400e+03 9.13366222e-07
1.24500e+03 2.04800001e-06
1.24600e+03 4.43451359e-06
1.24700e+03 9.27241943e-06
1.24800e+03 1.87228174e-05
1.24900e+03 3.65073585e-05
1.25000e+03 6.87417702e-05
1.25100e+03 1.24994852e-04
1.25200e+03 2.19479865e-04
1.25300e+03 3.72158902e-04
1.25400e+03 6.09387220e-04
1.25500e+03 9.63583852e-04
1.25600e+03 1.47135331e-03
1.25700e+03 2.16958047e-03
1.25800e+03 3.08934172e-03
1.25900e+03 4.24803019e-03
1.26000e+03 5.64080095e-03
1.26100e+03 7.23311844e-03
1.26200e+03 8.95657770e-03
1.26300e+03 1.07100242e-02
1.26400e+03 1.23671826e-02
1.26500e+03 1.37906014e-02
1.26600e+03 1.48500501e-02
1.26700e+03 1.54420556e-02
1.26800e+03 1.55065437e-02
1.26900e+03 1.50368845e-02
1.27000e+03 1.40810153e-02
1.27100e+03 1.27333789e-02
1.27200e+03 1.11195530e-02
1.27300e+03 9.37703227e-03
1.27400e+03 7.63621960e-03
1.27500e+03 6.00519211e-03
1.27600e+03 4.56049054e-03
1.27700e+03 3.34451486e-03
1.27800e+03 2.36860414e-03
1.27900e+03 1.61990900e-03
1.28000e+03 1.06986423e-03
1.28100e+03 6.82351160e-04
1.28200e+03 4.20271471e-04
1.28300e+03 2.49974841e-04
1.28400e+03 1.43584996e-04
1.28500e+03 7.96471831e-05
1.28600e+03 4.26660993e-05
1.28700e+03 2.20723991e-05
1.28800e+03 1.10274112e-05
1.28900e+03 5.32057838e-06
1.29000e+03 2.47918961e-06
1.29100e+03 1.11565844e-06
1.29200e+03 4.84874216e-07
1.29300e+03 2.03521250e-07
1.29400e+03 8.25050825e-08
1.29500e+03 3.23035611e-08
1.29600e+03 1.22159860e-08
1.29700e+03 4.46196437e-09
1.29800e+03 1.57418461e-09
1.29900e+03 5.36452766e-10
1.30000e+03 1.76591498e-10
1.30100e+03 5.61550701e-11
1.30200e+03 1.72508260e-11
1.30300e+03 5.11983730e-12
1.30400e+03 1.46809596e-12
1.30500e+03 4.06756798e-13
1.30600e+03 1.08900813e-13
1.30700e+03 2.81761283e-14
1.30800e+03 7.04576058e-15
1.30900e+03 1.70301388e-15
1.31000e+03 3.97928325e-16
1.31100e+03 8.98971828e-17
1.31200e+03 1.96383921e-17
1.31300e+03 4.14910566e-18
1.31400e+03 8.47945659e-19
1.31500e+03 1.67659748e-19
1.31600e+03 3.20793067e-20
1.31700e+03 5.94086901e-21
1.31800e+03 1.06512818e-21
1.31900e+03 1.84919329e-22
1.32000e+03 3.10953271e-23
1.32100e+03 5.06576166e-24
1.32200e+03 7.99713022e-25
1.32300e+03 1.22366547e-25
1.32400e+03 1.81519630e-26
1.32500e+03 2.61096793e-27
1.32600e+03 3.64229583e-28
1.32700e+03 4.93215273e-29
1.32800e+03 6.79717705e-30
1.32900e+03 3.46460514e-30
1.33000e+03 2.05926484e-29
1.33100e+03 1.53541373e-28
1.33200e+03 1.11084183e-27
1.33300e+03 7.76145877e-27
1.33400e+03 5.23679969e-26
1.33500e+03 3.41208247e-25
1.33600e+03 2.14686144e-24
1.33700e+03 1.30442602e-23
1.33800e+03 7.65360120e-23
1.33900e+03 4.33653789e-22
1.34000e+03 2.37274683e-21
1.34100e+03 1.25369126e-20
1.34200e+03 6.39677000e-20
1.34300e+03 3.15182294e-19
1.34400e+03 1.49966353e-18
1.34500e+03 6.89059597e-18
1.34600e+03 3.05738888e-17
1.34700e+03 1.31001274e-16
1.34800e+03 5.42039949e-16
1.34900e+03 2.16579832e-15
1.35000e+03 8.35671652e-15
1.35100e+03 3.11375378e-14
1.35200e+03 1.12037602e-13
1.35300e+03 3.89290931e-13
1.35400e+03 1.30621813e-12
1.35500e+03 4.23241334e-12
1.35600e+03 1.32431527e-11
1.35700e+03 4.00152609e-11
1.35800e+03 1.16759137e-10
1.35900e+03 3.28993318e-10
1.36000e+03 8.95188053e-10
1.36100e+03 2.35219066e-09
1.36200e+03 5.96845443e-09
1.36300e+03 1.46245493e-08
1.36400e+03 3.46046584e-08
1.36500e+03 7.90712295e-08
1.36600e+03 1.74475689e-07
1.36700e+03 3.71779111e-07
1.36800e+03 7.65016188e-07
1.36900e+03 1.52018061e-06
1.37000e+03 2.91718811e-06
1.37100e+03 5.40615228e-06
1.37200e+03 9.67573062e-06
1.37300e+03 1.67255443e-05
1.37400e+03 2.79272521e-05
1.37500e+03 4.50520200e-05
1.37600e+03 7.02404168e-05
1.37700e+03 1.05901185e-04
1.37800e+03 1.54556793e-04
1.37900e+03 2.18715312e-04
1.38000e+03 3.00946783e-04
1.38100e+03 4.04478600e-04
1.38200e+03 5.34788804e-04
1.38300e+03 7.02841859e-04
1.38400e+03 9.30727390e-04
1.38500e+03 1.26044422e-03
1.38600e+03 1.76629939e-03
1.38700e+03 2.57072026e-03
1.38800e+03 3.86208150e-03
1.38900e+03 5.91140476e-03
1.39000e+03 9.08269163e-03
1.39100e+03 1.38297206e-02
1.39200e+03 2.06712506e-02
1.39300e+03 3.01378042e-02
1.39400e+03 4.26874795e-02
1.39500e+03 5.85957807e-02
1.39600e+03 7.78342646e-02
1.39700e+03 9.99624327e-02
1.39800e+03 1.24063223e-01
1.39900e+03 1.48751136e-01
1.40000e+03 1.72271396e-01
1.40100e+03 1.92689416e-01
1.40200e+03 2.08146377e-01
1.40300e+03 2.17135754e-01
1.40400e+03 2.18744280e-01
1.40500e+03 2.12804076e-01
1.40600e+03 1.99920877e-01
1.40700e+03 1.81371746e-01
1.40800e+03 1.58896166e-01
1.40900e+03 1.34427751e-01
1.41000e+03 1.09823643e-01
1.41100e+03 8.66430966e-02
1.41200e+03 6.60090039e-02
1.41300e+03 4.85627669e-02
1.41400e+03 3.45012364e-02
1.41500e+03 2.36699241e-02
1.41600e+03 1.56815876e-02
1.41700e+03 1.00326149e-02
1.41800e+03 6.19825164e-03
1.41900e+03 3.69790038e-03
1.42000e+03 2.13045396e-03
1.42100e+03 1.18527750e-03
1.42200e+03 6.36793860e-04
1.42300e+03 3.30376110e-04
1.42400e+03 1.65519568e-04
1.42500e+03 8.00794333e-05
1.42600e+03 3.74130901e-05
1.42700e+03 1.68794040e-05
1.42800e+03 7.35396530e-06
1.42900e+03 3.09397631e-06
1.43000e+03 1.25702331e-06
1.43100e+03 4.93174510e-07
1.43200e+03 1.86848170e-07
1.43300e+03 6.83609388e-08
1.43400e+03 2.41522795e-08
1.43500e+03 8.24022698e-09
1.43600e+03 2.71488328e-09
1.43700e+03 8.63761996e-10
1.43800e+03 2.65379860e-10
1.43900e+03 7.87358950e-11
1.44000e+03 2.25584116e-11
1.44100e+03 6.24130211e-12
1.44200e+03 1.66752685e-12
1.44300e+03 4.30230720e-13
1.44400e+03 1.07191721e-13
1.44500e+03 2.57904376e-14
1.44600e+03 5.99424180e-15
1.44700e+03 1.35537675e-15
1.44800e+03 3.43584053e-16
1.44900e+03 3.01398042e-16
1.45000e+03 1.07977184e-15
1.45100e+03 4.57853830e-15
1.45200e+03 1.89447140e-14
1.45300e+03 7.57334690e-14
1.45400e+03 2.92366791e-13
1.45500e+03 1.08993250e-12
1.45600e+03 3.92375718e-12
1.45700e+03 1.36406663e-11
1.45800e+03 4.57930940e-11
1.45900e+03 1.48455171e-10
1.46000e+03 4.64752368e-10
1.46100e+03 1.40500812e-09
1.46200e+03 4.10172930e-09
1.46300e+03 1.15634146e-08
1.46400e+03 3.14801026e-08
1.46500e+03 8.27593594e-08
1.46600e+03 2.10101446e-07
1.46700e+03 5.15076700e-07
1.46800e+03 1.21939864e-06
1.46900e+03 2.78772833e-06
1.47000e+03 6.15440582e-06
1.47100e+03 1.31205715e-05
1.47200e+03 2.70116002e-05
1.47300e+03 5.37005601e-05
1.47400e+03 1.03095155e-04
1.47500e+03 1.91129903e-04
1.47600e+03 3.42176328e-04
1.47700e+03 5.91564662e-04
1.47800e+03 9.87609877e-04
1.47900e+03 1.59220714e-03
1.48000e+03 2.47881804e-03
1.48100e+03 3.72666771e-03
1.48200e+03 5.41037830e-03
1.48300e+03 7.58517376e-03
1.48400e+03 1.02691471e-02
1.48500e+03 1.34256140e-02
1.48600e+03 1.69498118e-02
1.48700e+03 2.06645781e-02
1.48800e+03 2.43287135e-02
1.48900e+03 2.76593956e-02
1.49000e+03 3.03666698e-02
1.49100e+03 3.21945671e-02
1.49200e+03 3.29608916e-02
1.49300e+03 3.25871405e-02
1.49400e+03 3.11117539e-02
1.49500e+03 2.86836013e-02
1.49600e+03 2.55372307e-02
1.49700e+03 2.19555773e-02
1.49800e+03 1.82283292e-02
1.49900e+03 1.46143601e-02
1.50000e+03 1.13147168e-02
1.50100e+03 8.45937950e-03
1.50200e+03 6.10751118e-03
1.50300e+03 4.25815016e-03
1.50400e+03 2.86687406e-03
1.50500e+03 1.86391969e-03
1.50600e+03 1.17024480e-03
1.50700e+03 7.09507810e-04
1.50800e+03 4.15401999e-04
1.50900e+03 2.34861010e-04
1.51000e+03 1.28228395e-04
1.51100e+03 6.76064961e-05
1.51200e+03 3.44210085e-05
1.51300e+03 1.69234808e-05
1.51400e+03 8.03501578e-06
1.51500e+03 3.68395839e-06
1.51600e+03 1.63107390e-06
1.51700e+03 6.97370384e-07
1.51800e+03 2.87928266e-07
1.51900e+03 1.14798455e-07
1.52000e+03 4.41996394e-08
1.52100e+03 1.64335864e-08
1.52200e+03 5.90033916e-09
1.52300e+03 2.04575320e-09
1.52400e+03 6.84966071e-10
1.52500e+03 2.21524686e-10
1.52600e+03 6.93929104e-11
1.52700e+03 2.17678537e-11
1.52800e+03 9.37418440e-12
1.52900e+03 1.31673097e-11
1.53000e+03 3.88511272e-11
1.53100e+03 1.24288995e-10
1.53200e+03 3.87872271e-10
1.53300e+03 1.16986131e-09
1.53400e+03 3.40753287e-09
1.53500e+03 9.58471110e-09
1.53600e+03 2.60344934e-08
1.53700e+03 6.82889114e-08
1.53800e+03 1.72974542e-07
1.53900e+03 4.23102051e-07
1.54000e+03 9.99399232e-07
1.54100e+03 2.27962721e-06
1.54200e+03 5.02133958e-06
1.54300e+03 1.06808617e-05
1.54400e+03 2.19393590e-05
1.54500e+03 4.35183594e-05
1.54600e+03 8.33589115e-05
1.54700e+03 1.54192232e-04
1.54800e+03 2.75425341e-04
1.54900e+03 4.75090380e-04
1.55000e+03 7.91369882e-04
1.55100e+03 1.27295701e-03
1.55200e+03 1.97732883e-03
1.55300e+03 2.96602631e-03
1.55400e+03 4.29637361e-03
1.55500e+03 6.00980002e-03
1.55600e+03 8.11799802e-03
1.55700e+03 1.05893378e-02
1.55800e+03 1.33388873e-02
1.55900e+03 1.62256216e-02
1.56000e+03 1.90596106e-02
1.56100e+03 2.16200973e-02
1.56200e+03 2.36827541e-02
1.56300e+03 2.50517291e-02
1.56400e+03 2.55902278e-02
1.56500e+03 2.52430334e-02
1.56600e+03 2.40458365e-02
1.56700e+03 2.21191904e-02
1.56800e+03 1.96485113e-02
1.56900e+03 1.68547157e-02
1.57000e+03 1.39619264e-02
1.57100e+03 1.11687255e-02
1.57200e+03 8.62785059e-03
1.57300e+03 6.43666049e-03
1.57400e+03 4.63799054e-03
1.57500e+03 3.22894041e-03
1.57600e+03 2.17409549e-03
1.57700e+03 1.41971256e-03
1.57800e+03 9.06203545e-04
1.57900e+03 5.77402204e-04
1.58000e+03 3.86194826e-04
1.58100e+03 2.96885454e-04
1.58200e+03 2.85067286e-04
1.58300e+03 3.35846434e-04
1.58400e+03 4.41143930e-04
1.58500e+03 5.96624131e-04
1.58600e+03 7.98657096e-04
1.58700e+03 1.04165330e-03
1.58800e+03 1.31609038e-03
1.58900e+03 1.60752982e-03
1.59000e+03 1.89684154e-03
1.59100e+03 2.16168592e-03
1.59200e+03 2.37906072e-03
1.59300e+03 2.52846263e-03
1.59400e+03 2.59502164e-03
1.59500e+03 2.57191871e-03
1.59600e+03 2.46152775e-03
1.59700e+03 2.27500984e-03
1.59800e+03 2.03045234e-03
1.59900e+03 1.74998076e-03
1.60000e+03 1.45648056e-03
1.60100e+03 1.17059605e-03
1.60200e+03 9.08532260e-04
1.60300e+03 6.80933332e-04
1.60400e+03 4.92832994e-04
1.60500e+03 3.44449769e-04
1.60600e+03 2.32478595e-04
1.60700e+03 1.51520373e-04
1.60800e+03 9.53652694e-05
1.60900e+03 5.79617326e-05
1.61000e+03 3.40194969e-05
1.61100e+03 1.92826159e-05
1.61200e+03 1.05567404e-05
1.61300e+03 5.58677995e-06
1.61400e+03 2.86832832e-06
1.61500e+03 1.45205529e-06
1.61600e+03 7.75193740e-07
1.61700e+03 5.34388553e-07
1.61800e+03 6.01471014e-07
1.61900e+03 9.77352776e-07
1.62000e+03 1.77704253e-06
1.62100e+03 3.23841432e-06
1.62200e+03 5.74687775e-06
1.62300e+03 9.86636730e-06
1.62400e+03 1.63638808e-05
1.62500e+03 2.62110114e-05
1.62600e+03 4.05434153e-05
1.62700e+03 6.05605188e-05
1.62800e+03 8.73554824e-05
1.62900e+03 1.21680720e-04
1.63000e+03 1.63675746e-04
1.63100e+03 2.12607135e-04
1.63200e+03 2.66687267e-04
1.63300e+03 3.23041015e-04
1.63400e+03 3.77871373e-04
1.63500e+03 4.26836213e-04
1.63600e+03 4.65596239e-04
1.63700e+03 4.90443078e-04
1.63800e+03 4.98882988e-04
1.63900e+03 4.90049241e-04
1.64000e+03 4.64848771e-04
1.64100e+03 4.25808761e-04
1.64200e+03 3.76659077e-04
1.64300e+03 3.21746050e-04
1.64400e+03 2.65404908e-04
1.64500e+03 2.11414912e-04
1.64600e+03 1.62627214e-04
1.64700e+03 1.20804126e-04
1.64800e+03 8.66565218e-05
1.64900e+03 6.00276966e-05
1.65000e+03 4.01543911e-05
1.65100e+03 2.59385295e-05
1.65200e+03 1.61803755e-05
1.65300e+03 9.74681633e-06
1.65400e+03 5.66980220e-06
1.65500e+03 3.18495994e-06
1.65600e+03 1.72771053e-06
1.65700e+03 9.05042400e-07
1.65800e+03 4.57823216e-07
1.65900e+03 2.23644199e-07
1.66000e+03 1.05499015e-07
1.66100e+03 4.80584887e-08
1.66200e+03 2.11408651e-08
1.66300e+03 8.98062043e-09
1.66400e+03 3.68401056e-09
1.66500e+03 1.45937309e-09
1.66600e+03 5.58268005e-10
1.66700e+03 2.06229165e-10
1.66800e+03 7.35679019e-11
1.66900e+03 2.53429751e-11
1.67000e+03 8.43058598e-12
1.67100e+03 2.70825072e-12
1.67200e+03 8.40138551e-13
1.67300e+03 2.51677215e-13
1.67400e+03 7.28061097e-14
1.67500e+03 2.03386766e-14
1.67600e+03 5.48666567e-15
1.67700e+03 1.42930609e-15
1.67800e+03 3.59561289e-16
1.67900e+03 8.73477163e-17
1.68000e+03 2.04909041e-17
1.68100e+03 4.64196249e-18
1.68200e+03 1.01548397e-18
1.68300e+03 2.14523789e-19
1.68400e+03 4.37631712e-20
1.68500e+03 8.62130580e-21
1.68600e+03 1.64009217e-21
1.68700e+03 3.01296719e-22
1.68800e+03 5.34504650e-23
1.68900e+03 9.15671113e-24
1.69000e+03 1.51481110e-24
1.69100e+03 2.41996110e-25
1.69200e+03 3.73326855e-26
1.69300e+03 5.56161622e-27
1.69400e+03 8.00099029e-28
1.69500e+03 1.11152033e-28
1.69600e+03 1.49115234e-29
1.69700e+03 1.93177954e-30
1.69800e+03 2.41670726e-31
1.69900e+03 2.91958735e-32
1.70000e+03 3.40604074e-33
1.70100e+03 3.83715325e-34
1.70200e+03 4.17445122e-35
1.70300e+03 4.38551476e-36
1.70400e+03 4.44910548e-37
1.70500e+03 4.35868786e-38
1.70600e+03 4.12353585e-39
1.70700e+03 3.76716567e-40
1.70800e+03 3.32346115e-41
1.70900e+03 2.83137525e-42
1.71000e+03 2.32935241e-43
1.71100e+03 1.85056313e-44
1.71200e+03 1.41972278e-45
1.71300e+03 1.05180235e-46
1.71400e+03 7.52481214e-48
1.71500e+03 5.19862065e-49
1.71600e+03 3.46825909e-50
1.71700e+03 2.23442550e-51
1.71800e+03 1.39011640e-52
1.71900e+03 8.35155589e-54
1.72000e+03 4.84523179e-55
1.72100e+03 2.71451761e-56
1.72200e+03 1.46859386e-57
1.72300e+03 7.67258477e-59
1.72400e+03 3.87090597e-60
1.72500e+03 1.88588188e-61
1.72600e+03 8.87252626e-63
1.72700e+03 4.03098368e-64
1.72800e+03 1.76850269e-65
1.72900e+03 7.49257935e-67
1.73000e+03 3.06540539e-68
1.73100e+03 1.21108723e-69
1.73200e+03 4.62055207e-71
1.73300e+03 1.70232805e-72
1.73400e+03 6.05652593e-74
1.73500e+03 2.08082160e-75
1.73600e+03 6.90362278e-77
1.73700e+03 2.21182213e-78
1.73800e+03 6.84312204e-80
1.73900e+03 2.04451034e-81
1.74000e+03 5.89868598e-83
1.74100e+03 1.64343368e-84
1.74200e+03 4.42160588e-86
1.74300e+03 1.14878516e-87
1.74400e+03 2.88222938e-89
1.74500e+03 6.98311521e-91
1.74600e+03 1.63380723e-92
1.74700e+03 3.69133414e-94
1.74800e+03 8.05372591e-96
1.74900e+03 1.69684148e-97
1.75000e+03 3.45236446e-99
1.75100e+03 6.78301759e-101
1.75200e+03 1.28694560e-102
1.75300e+03 2.35791625e-104
1.75400e+03 4.17183863e-106
1.75500e+03 7.12783384e-108
1.75600e+03 1.17603047e-109
1.75700e+03 1.87374514e-111
1.75800e+03 2.88292541e-113
1.75900e+03 4.28338618e-115
1.76000e+03 6.14570907e-117
1.76100e+03 8.51505982e-119
1.76200e+03 1.13929017e-120
1.76300e+03 1.47201398e-122
1.76400e+03 1.83662487e-124
1.76500e+03 2.21289052e-126
1.76600e+03 2.57472194e-128
1.76700e+03 2.89288840e-130
1.76800e+03 3.13880233e-132
1.76900e+03 3.28872221e-134
1.77000e+03 3.32752524e-136
1.77100e+03 3.25122079e-138
1.77200e+03 3.06762671e-140
1.77300e+03 2.79504945e-142
1.77400e+03 2.45927685e-144
1.77500e+03 2.08956694e-146
1.77600e+03 1.71449449e-148
1.77700e+03 1.35845995e-150
1.77800e+03 1.03941391e-152
1.77900e+03 7.67999880e-155
1.78000e+03 5.47980013e-157
1.78100e+03 3.77571517e-159
1.78200e+03 2.51226050e-161
1.78300e+03 1.61421380e-163
1.78400e+03 1.00158632e-165
1.78500e+03 6.00131812e-168
1.78600e+03 3.47244883e-170
1.78700e+03 1.94024244e-172
1.78800e+03 1.04690455e-174
1.78900e+03 5.45492914e-177
1.79000e+03 2.74474548e-179
1.79100e+03 1.33366264e-181
1.79200e+03 6.25778779e-184
1.79300e+03 2.83548019e-186
1.79400e+03 1.24069018e-188
1.79500e+03 5.24241032e-191
1.79600e+03 2.13909275e-193
1.79700e+03 8.42867216e-196
1.79800e+03 3.20715277e-198
1.79900e+03 1.17844976e-200
1.80000e+03 4.18151289e-203
1.80100e+03 1.43280387e-205
1.80200e+03 4.74101132e-208
1.80300e+03 1.51490772e-210
1.80400e+03 4.67446922e-213
1.80500e+03 1.39286611e-215
1.80600e+03 4.00790461e-218
1.80700e+03 1.11366949e-220
1.80800e+03 2.98831386e-223
1.80900e+03 7.74331693e-226
1.81000e+03 1.93757624e-228
1.81100e+03 4.68189325e-231
1.81200e+03 1.09248417e-233
1.81300e+03 2.46172615e-236
1.81400e+03 5.35667461e-239
1.81500e+03 1.12559390e-241
1.81600e+03 2.28401598e-244
1.81700e+03 4.47556103e-247
1.81800e+03 8.46889543e-250
1.81900e+03 1.54752259e-252
1.82000e+03 2.73072623e-255
1.82100e+03 4.65318446e-258
1.82200e+03 7.65690599e-261
1.82300e+03 1.21671063e-263
1.82400e+03 1.86703400e-266
1.82500e+03 2.76661096e-269
1.82600e+03 3.95890335e-272
1.82700e+03 5.47057083e-275
1.82800e+03 7.29997431e-278
1.82900e+03 9.40677937e-281
1.83000e+03 1.17055419e-283
1.83100e+03 1.40660783e-286
1.83200e+03 1.63224549e-289
1.83300e+03 1.82906383e-292
1.83400e+03 1.97926155e-295
1.83500e+03 2.06827582e-298
1.83600e+03 2.08710674e-301
1.83700e+03 2.03381669e-304
1.83800e+03 1.91385880e-307
1.83900e+03 1.73915752e-310
1.84000e+03 1.52615585e-313
1.84100e+03 1.29327182e-316
1.84200e+03 1.05828861e-319
1.84300e+03 8.39911598e-323
1.84400e+03 0.00000000e+00
1.84500e+03 0.00000000e+00
1.84600e+03 0.00000000e+00
1.84700e+03 0.00000000e+00
1.84800e+03 0.00000000e+00
1.84900e+03 0.00000000e+00
1.85000e+03 0.00000000e+00
1.85100e+03 0.00000000e+00
1.85200e+03 0.00000000e+00
1.85300e+03 0.00000000e+00
1.85400e+03 0.00000000e+00
1.85500e+03 0.00000000e+00
1.85600e+03 0.00000000e+00
1.85700e+03 0.00000000e+00
1.85800e+03 0.00000000e+00
1.85900e+03 0.00000000e+00
1.86000e+03 0.00000000e+00
1.86100e+03 0.00000000e+00
1.86200e+03 0.00000000e+00
1.86300e+03 0.00000000e+00
1.86400e+03 0.00000000e+00
1.86500e+03 0.00000000e+00
1.86600e+03 0.00000000e+00
1.86700e+03 0.00000000e+00
1.86800e+03 0.00000000e+00
1.86900e+03 0.00000000e+00
1.87000e+03 0.00000000e+00
1.87100e+03 0.00000000e+00
1.87200e+03 0.00000000e+00
1.87300e+03 0.00000000e+00
1.87400e+03 0.00000000e+00
1.87500e+03 0.00000000e+00
1.87600e+03 0.00000000e+00
1.87700e+03 0.00000000e+00
1.87800e+03 0.00000000e+00
1.87900e+03 0.00000000e+00
1.88000e+03 0.00000000e+00
1.88100e+03 0.00000000e+00
1.88200e+03 0.00000000e+00
1.88300e+03 0.00000000e+00
1.88400e+03 0.00000000e+00
1.88500e+03 0.00000000e+00
1.88600e+03 0.00000000e+00
1.88700e+03 0.00000000e+00
1.88800e+03 0.00000000e+00
1.88900e+03 0.00000000e+00
1.89000e+03 0.00000000e+00
1.89100e+03 0.00000000e+00
1.89200e+03 0.00000000e+00
1.89300e+03 0.00000000e+00
1.89400e+03 0.00000000e+00
1.89500e+03 0.00000000e+00
1.89600e+03 0.00000000e+00
1.89700e+03 0.00000000e+00
1.89800e+03 0.00000000e+00
1.89900e+03 0.00000000e+00
1.90000e+03 0.00000000e+00
1.90100e+03 0.00000000e+00
1.90200e+03 0.00000000e+00
1.90300e+03 0.00000000e+00
1.90400e+03 0.00000000e+00
1.90500e+03 0.00000000e+00
1.90600e+03 0.00000000e+00
1.90700e+03 0.00000000e+00
1.90800e+03 0.00000000e+00
1.90900e+03 0.00000000e+00
1.91000e+03 0.00000000e+00
1.91100e+03 0.00000000e+00
1.91200e+03 0.00000000e+00
1.91300e+03 0.00000000e+00
1.91400e+03 0.00000000e+00
1.91500e+03 0.00000000e+00
1.91600e+03 0.00000000e+00
1.91700e+03 0.00000000e+00
1.91800e+03 0.00000000e+00
1.91900e+03 0.00000000e+00
1.92000e+03 0.00000000e+00
1.92100e+03 0.00000000e+00
1.92200e+03 0.00000000e+00
1.92300e+03 0.00000000e+00
1.92400e+03 0.00000000e+00
1.92500e+03 0.00000000e+00
1.92600e+03 0.00000000e+00
1.92700e+03 0.00000000e+00
1.92800e+03 0.00000000e+00
1.92900e+03 0.00000000e+00
1.93000e+03 0.00000000e+00
1.93100e+03 0.00000000e+00
1.93200e+03 0.00000000e+00
1.93300e+03 0.00000000e+00
1.93400e+03 0.00000000e+00
1.93500e+03 0.00000000e+00
1.93600e+03 0.00000000e+00
1.93700e+03 0.00000000e+00
1.93800e+03 0.00000000e+00
1.93900e+03 0.00000000e+00
1.94000e+03 0.00000000e+00
1.94100e+03 0.00000000e+00
1.94200e+03 0.00000000e+00
1.94300e+03 0.00000000e+00
1.94400e+03 0.00000000e+00
1.94500e+03 0.00000000e+00
1.94600e+03 0.00000000e+00
1.94700e+03 0.00000000e+00
1.94800e+03 0.00000000e+00
1.94900e+03 0.00000000e+00
1.95000e+03 0.00000000e+00
1.95100e+03 0.00000000e+00
1.95200e+03 0.00000000e+00
1.95300e+03 0.00000000e+00
1.95400e+03 0.00000000e+00
1.95500e+03 0.00000000e+00
1.95600e+03 0.00000000e+00
1.95700e+03 0.00000000e+00
1.95800e+03 0.00000000e+00
1.95900e+03 0.00000000e+00
1.96000e+03 0.00000000e+00
1.96100e+03 0.00000000e+00
1.96200e+03 0.00000000e+00
1.96300e+03 0.00000000e+00
1.96400e+03 0.00000000e+00
1.96500e+03 0.00000000e+00
1.96600e+03 0.00000000e+00
1.96700e+03 0.00000000e+00
1.96800e+03 0.00000000e+00
1.96900e+03 0.00000000e+00
1.97000e+03 0.00000000e+00
1.97100e+03 0.00000000e+00
1.97200e+03 0.00000000e+00
1.97300e+03 0.00000000e+00
1.97400e+03 0.00000000e+00
1.97500e+03 0.00000000e+00
1.97600e+03 0.00000000e+00
1.97700e+03 0.00000000e+00
1.97800e+03 0.00000000e+00
1.97900e+03 0.00000000e+00
1.98000e+03 0.00000000e+00
1.98100e+03 0.00000000e+00
1.98200e+03 0.00000000e+00
1.98300e+03 0.00000000e+00
1.98400e+03 0.00000000e+00
1.98500e+03 0.00000000e+00
1.98600e+03 0.00000000e+00
1.98700e+03 0.00000000e+00
1.98800e+03 0.00000000e+00
1.98900e+03 0.00000000e+00
1.99000e+03 0.00000000e+00
1.99100e+03 0.00000000e+00
1.99200e+03 0.00000000e+00
1.99300e+03 0.00000000e+00
1.99400e+03 0.00000000e+00
1.99500e+03 0.00000000e+00
1.99600e+03 0.00000000e+00
1.99700e+03 0.00000000e+00
1.99800e+03 0.00000000e+00
1.99900e+03 0.00000000e+00
2.00000e+03 0.00000000e+00
2.00100e+03 0.00000000e+00
2.00200e+03 0.00000000e+00
2.00300e+03 0.00000000e+00
2.00400e+03 0.00000000e+00
2.00500e+03 0.00000000e+00
2.00600e+03 0.00000000e+00
2.00700e+03 0.00000000e+00
2.00800e+03 0.00000000e+00
2.00900e+03 0.00000000e+00
2.01000e+03 0.00000000e+00
2.01100e+03 0.00000000e+00
2.01200e+03 0.00000000e+00
2.01300e+03 0.00000000e+00
2.01400e+03 0.00000000e+00
2.01500e+03 0.00000000e+00
2.01600e+03 0.00000000e+00
2.01700e+03 0.00000000e+00
2.01800e+03 0.00000000e+00
2.01900e+03 0.00000000e+00
2.02000e+03 0.00000000e+00
2.02100e+03 0.00000000e+00
2.02200e+03 0.00000000e+00
2.02300e+03 0.00000000e+00
2.02400e+03 0.00000000e+00
2.02500e+03 0.00000000e+00
2.02600e+03 0.00000000e+00
2.02700e+03 0.00000000e+00
2.02800e+03 0.00000000e+00
2.02900e+03 0.00000000e+00
2.03000e+03 0.00000000e+00
2.03100e+03 0.00000000e+00
2.03200e+03 0.00000000e+00
2.03300e+03 0.00000000e+00
2.03400e+03 0.00000000e+00
2.03500e+03 0.00000000e+00
2.03600e+03 0.00000000e+00
2.03700e+03 0.00000000e+00
2.03800e+03 0.00000000e+00
2.03900e+03 0.00000000e+00
2.04000e+03 0.00000000e+00
2.04100e+03 0.00000000e+00
2.04200e+03 0.00000000e+00
2.04300e+03 0.00000000e+00
2.04400e+03 0.00000000e+00
2.04500e+03 0.00000000e+00
2.04600e+03 0.00000000e+00
2.04700e+03 0.00000000e+00
2.04800e+03 0.00000000e+00
2.04900e+03 0.00000000e+00
2.05000e+03 0.00000000e+00
2.05100e+03 0.00000000e+00
2.05200e+03 0.00000000e+00
2.05300e+03 0.00000000e+00
2.05400e+03 0.00000000e+00
2.05500e+03 0.00000000e+00
2.05600e+03 0.00000000e+00
2.05700e+03 0.00000000e+00
2.05800e+03 0.00000000e+00
2.05900e+03 0.00000000e+00
2.06000e+03 0.00000000e+00
2.06100e+03 0.00000000e+00
2.06200e+03 0.00000000e+00
2.06300e+03 0.00000000e+00
2.06400e+03 0.00000000e+00
2.06500e+03 0.00000000e+00
2.06600e+03 0.00000000e+00
2.06700e+03 0.00000000e+00
2.06800e+03 0.00000000e+00
2.06900e+03 0.00000000e+00
2.07000e+03 0.00000000e+00
2.07100e+03 0.00000000e+00
2.07200e+03 0.00000000e+00
2.07300e+03 0.00000000e+00
2.07400e+03 0.00000000e+00
2.07500e+03 0.00000000e+00
2.07600e+03 0.00000000e+00
2.07700e+03 0.00000000e+00
2.07800e+03 0.00000000e+00
2.07900e+03 0.00000000e+00
2.08000e+03 0.00000000e+00
2.08100e+03 0.00000000e+00
2.08200e+03 0.00000000e+00
2.08300e+03 0.00000000e+00
2.08400e+03 0.00000000e+00
2.08500e+03 0.00000000e+00
2.08600e+03 0.00000000e+00
2.08700e+03 0.00000000e+00
2.08800e+03 0.00000000e+00
2.08900e+03 0.00000000e+00
2.09000e+03 0.00000000e+00
2.09100e+03 0.00000000e+00
2.09200e+03 0.00000000e+00
2.09300e+03 0.00000000e+00
2.09400e+03 0.00000000e+00
2.09500e+03 0.00000000e+00
2.09600e+03 0.00000000e+00
2.09700e+03 0.00000000e+00
2.09800e+03 0.00000000e+00
2.09900e+03 0.00000000e+00
2.10000e+03 0.00000000e+00
2.10100e+03 0.00000000e+00
2.10200e+03 0.00000000e+00
2.10300e+03 0.00000000e+00
2.10400e+03 0.00000000e+00
2.10500e+03 0.00000000e+00
2.10600e+03 0.00000000e+00
2.10700e+03 0.00000000e+00
2.10800e+03 0.00000000e+00
2.10900e+03 0.00000000e+00
2.11000e+03 0.00000000e+00
2.11100e+03 0.00000000e+00
2.11200e+03 0.00000000e+00
2.11300e+03 0.00000000e+00
2.11400e+03 0.00000000e+00
2.11500e+03 0.00000000e+00
2.11600e+03 0.00000000e+00
2.11700e+03 0.00000000e+00
2.11800e+03 0.00000000e+00
2.11900e+03 0.00000000e+00
2.12000e+03 0.00000000e+00
2.12100e+03 0.00000000e+00
2.12200e+03 0.00000000e+00
2.12300e+03 0.00000000e+00
2.12400e+03 0.00000000e+00
2.12500e+03 0.00000000e+00
2.12600e+03 0.00000000e+00
2.12700e+03 0.00000000e+00
2.12800e+03 0.00000000e+00
2.12900e+03 0.00000000e+00
2.13000e+03 0.00000000e+00
2.13100e+03 0.00000000e+00
2.13200e+03 0.00000000e+00
2.13300e+03 0.00000000e+00
2.13400e+03 0.00000000e+00
2.13500e+03 0.00000000e+00
2.13600e+03 0.00000000e+00
2.13700e+03 0.00000000e+00
2.13800e+03 0.00000000e+00
2.13900e+03 0.00000000e+00
2.14000e+03 0.00000000e+00
2.14100e+03 0.00000000e+00
2.14200e+03 0.00000000e+00
2.14300e+03 0.00000000e+00
2.14400e+03 0.00000000e+00
2.14500e+03 0.00000000e+00
2.14600e+03 0.00000000e+00
2.14700e+03 0.00000000e+00
2.14800e+03 0.00000000e+00
2.14900e+03 0.00000000e+00
2.15000e+03 0.00000000e+00
2.15100e+03 0.00000000e+00
2.15200e+03 0.00000000e+00
2.15300e+03 0.00000000e+00
2.15400e+03 0.00000000e+00
2.15500e+03 0.00000000e+00
2.15600e+03 0.00000000e+00
2.15700e+03 0.00000000e+00
2.15800e+03 0.00000000e+00
2.15900e+03 0.00000000e+00
2.16000e+03 0.00000000e+00
2.16100e+03 0.00000000e+00
2.16200e+03 0.00000000e+00
2.16300e+03 0.00000000e+00
2.16400e+03 0.00000000e+00
2.16500e+03 0.00000000e+00
2.16600e+03 0.00000000e+00
2.16700e+03 0.00000000e+00
2.16800e+03 0.00000000e+00
2.16900e+03 0.00000000e+00
2.17000e+03 0.00000000e+00
2.17100e+03 0.00000000e+00
2.17200e+03 0.00000000e+00
2.17300e+03 0.00000000e+00
2.17400e+03 0.00000000e+00
2.17500e+03 0.00000000e+00
2.17600e+03 0.00000000e+00
2.17700e+03 0.00000000e+00
2.17800e+03 0.00000000e+00
2.17900e+03 0.00000000e+00
2.18000e+03 0.00000000e+00
2.18100e+03 0.00000000e+00
2.18200e+03 0.00000000e+00
2.18300e+03 0.00000000e+00
2.18400e+03 0.00000000e+00
2.18500e+03 0.00000000e+00
2.18600e+03 0.00000000e+00
2.18700e+03 0.00000000e+00
2.18800e+03 0.00000000e+00
2.18900e+03 0.00000000e+00
2.19000e+03 0.00000000e+00
2.19100e+03 0.00000000e+00
2.19200e+03 0.00000000e+00
2.19300e+03 0.00000000e+00
2.19400e+03 0.00000000e+00
2.19500e+03 0.00000000e+00
2.19600e+03 0.00000000e+00
2.19700e+03 0.00000000e+00
2.19800e+03 0.00000000e+00
2.19900e+03 0.00000000e+00
2.20000e+03 0.00000000e+00
2.20100e+03 0.00000000e+00
2.20200e+03 0.00000000e+00
2.20300e+03 0.00000000e+00
2.20400e+03 0.00000000e+00
2.20500e+03 0.00000000e+00
2.20600e+03 0.00000000e+00
2.20700e+03 0.00000000e+00
2.20800e+03 0.00000000e+00
2.20900e+03 0.00000000e+00
2.21000e+03 0.00000000e+00
2.21100e+03 0.00000000e+00
2.21200e+03 0.00000000e+00
2.21300e+03 0.00000000e+00
2.21400e+03 0.00000000e+00
2.21500e+03 0.00000000e+00
2.21600e+03 0.00000000e+00
2.21700e+03 0.00000000e+00
2.21800e+03 0.00000000e+00
2.21900e+03 0.00000000e+00
2.22000e+03 0.00000000e+00
2.22100e+03 0.00000000e+00
2.22200e+03 0.00000000e+00
2.22300e+03 0.00000000e+00
2.22400e+03 0.00000000e+00
2.22500e+03 0.00000000e+00
2.22600e+03 0.00000000e+00
2.22700e+03 0.00000000e+00
2.22800e+03 0.00000000e+00
2.22900e+03 0.00000000e+00
2.23000e+03 0.00000000e+00
2.23100e+03 0.00000000e+00
2.23200e+03 0.00000000e+00
2.23300e+03 0.00000000e+00
2.23400e+03 0.00000000e+00
2.23500e+03 0.00000000e+00
2.23600e+03 0.00000000e+00
2.23700e+03 0.00000000e+00
2.23800e+03 0.00000000e+00
2.23900e+03 0.00000000e+00
2.24000e+03 0.00000000e+00
2.24100e+03 0.00000000e+00
2.24200e+03 0.00000000e+00
2.24300e+03 0.00000000e+00
2.24400e+03 0.00000000e+00
2.24500e+03 0.00000000e+00
2.24600e+03 0.00000000e+00
2.24700e+03 0.00000000e+00
2.24800e+03 0.00000000e+00
2.24900e+03 0.00000000e+00
2.25000e+03 0.00000000e+00
2.25100e+03 0.00000000e+00
2.25200e+03 0.00000000e+00
2.25300e+03 0.00000000e+00
2.25400e+03 0.00000000e+00
2.25500e+03 0.00000000e+00
2.25600e+03 0.00000000e+00
2.25700e+03 0.00000000e+00
2.25800e+03 0.00000000e+00
2.25900e+03 0.00000000e+00
2.26000e+03 0.00000000e+00
2.26100e+03 0.00000000e+00
2.26200e+03 0.00000000e+00
2.26300e+03 0.00000000e+00
2.26400e+03 0.00000000e+00
2.26500e+03 0.00000000e+00
2.26600e+03 0.00000000e+00
2.26700e+03 0.00000000e+00
2.26800e+03 0.00000000e+00
2.26900e+03 0.00000000e+00
2.27000e+03 0.00000000e+00
2.27100e+03 0.00000000e+00
2.27200e+03 0.00000000e+00
2.27300e+03 0.00000000e+00
2.27400e+03 0.00000000e+00
2.27500e+03 0.00000000e+00
2.27600e+03 0.00000000e+00
2.27700e+03 0.00000000e+00
2.27800e+03 0.00000000e+00
2.27900e+03 0.00000000e+00
2.28000e+03 0.00000000e+00
2.28100e+03 0.00000000e+00
2.28200e+03 0.00000000e+00
2.28300e+03 0.00000000e+00
2.28400e+03 0.00000000e+00
2.28500e+03 0.00000000e+00
2.28600e+03 0.00000000e+00
2.28700e+03 0.00000000e+00
2.28800e+03 0.00000000e+00
2.28900e+03 0.00000000e+00
2.29000e+03 0.00000000e+00
2.29100e+03 0.00000000e+00
2.29200e+03 0.00000000e+00
2.29300e+03 0.00000000e+00
2.29400e+03 0.00000000e+00
2.29500e+03 0.00000000e+00
2.29600e+03 0.00000000e+00
2.29700e+03 0.00000000e+00
2.29800e+03 0.00000000e+00
2.29900e+03 0.00000000e+00
2.30000e+03 0.00000000e+00
2.30100e+03 0.00000000e+00
2.30200e+03 0.00000000e+00
2.30300e+03 0.00000000e+00
2.30400e+03 0.00000000e+00
2.30500e+03 0.00000000e+00
2.30600e+03 0.00000000e+00
2.30700e+03 0.00000000e+00
2.30800e+03 0.00000000e+00
2.30900e+03 0.00000000e+00
2.31000e+03 0.00000000e+00
2.31100e+03 0.00000000e+00
2.31200e+03 0.00000000e+00
2.31300e+03 0.00000000e+00
2.31400e+03 0.00000000e+00
2.31500e+03 0.00000000e+00
2.31600e+03 0.00000000e+00
2.31700e+03 0.00000000e+00
2.31800e+03 0.00000000e+00
2.31900e+03 0.00000000e+00
2.32000e+03 0.00000000e+00
2.32100e+03 0.00000000e+00
2.32200e+03 0.00000000e+00
2.32300e+03 0.00000000e+00
2.32400e+03 0.00000000e+00
2.32500e+03 0.00000000e+00
2.32600e+03 0.00000000e+00
2.32700e+03 0.00000000e+00
2.32800e+03 0.00000000e+00
2.32900e+03 0.00000000e+00
2.33000e+03 0.00000000e+00
2.33100e+03 0.00000000e+00
2.33200e+03 0.00000000e+00
2.33300e+03 0.00000000e+00
2.33400e+03 0.00000000e+00
2.33500e+03 0.00000000e+00
2.33600e+03 0.00000000e+00
2.33700e+03 0.00000000e+00
2.33800e+03 0.00000000e+00
2.33900e+03 0.00000000e+00
2.34000e+03 0.00000000e+00
2.34100e+03 0.00000000e+00
2.34200e+03 0.00000000e+00
2.34300e+03 0.00000000e+00
2.34400e+03 0.00000000e+00
2.34500e+03 0.00000000e+00
2.34600e+03 0.00000000e+00
2.34700e+03 0.00000000e+00
2.34800e+03 0.00000000e+00
2.34900e+03 0.00000000e+00
2.35000e+03 0.00000000e+00
2.35100e+03 0.00000000e+00
2.35200e+03 0.00000000e+00
2.35300e+03 0.00000000e+00
2.35400e+03 0.00000000e+00
2.35500e+03 0.00000000e+00
2.35600e+03 0.00000000e+00
2.35700e+03 0.00000000e+00
2.35800e+03 0.00000000e+00
2.35900e+03 0.00000000e+00
2.36000e+03 0.00000000e+00
2.36100e+03 0.00000000e+00
2.36200e+03 0.00000000e+00
2.36300e+03 0.00000000e+00
2.36400e+03 0.00000000e+00
2.36500e+03 0.00000000e+00
2.36600e+03 0.00000000e+00
2.36700e+03 0.00000000e+00
2.36800e+03 0.00000000e+00
2.36900e+03 0.00000000e+00
2.37000e+03 0.00000000e+00
2.37100e+03 0.00000000e+00
2.37200e+03 0.00000000e+00
2.37300e+03 0.00000000e+00
2.37400e+03 0.00000000e+00
2.37500e+03 0.00000000e+00
2.37600e+03 0.00000000e+00
2.37700e+03 0.00000000e+00
2.37800e+03 0.00000000e+00
2.37900e+03 0.00000000e+00
2.38000e+03 0.00000000e+00
2.38100e+03 0.00000000e+00
2.38200e+03 0.00000000e+00
2.38300e+03 0.00000000e+00
2.38400e+03 0.00000000e+00
2.38500e+03 0.00000000e+00
2.38600e+03 0.00000000e+00
2.38700e+03 0.00000000e+00
2.38800e+03 0.00000000e+00
2.38900e+03 0.00000000e+00
2.39000e+03 0.00000000e+00
2.39100e+03 0.00000000e+00
2.39200e+03 0.00000000e+00
2.39300e+03 0.00000000e+00
2.39400e+03 0.00000000e+00
2.39500e+03 0.00000000e+00
2.39600e+03 0.00000000e+00
2.39700e+03 0.00000000e+00
2.39800e+03 0.00000000e+00
2.39900e+03 0.00000000e+00
2.40000e+03 0.00000000e+00
2.40100e+03 0.00000000e+00
2.40200e+03 0.00000000e+00
2.40300e+03 0.00000000e+00
2.40400e+03 0.00000000e+00
2.40500e+03 0.00000000e+00
2.40600e+03 0.00000000e+00
2.40700e+03 0.00000000e+00
2.40800e+03 0.00000000e+00
2.40900e+03 0.00000000e+00
2.41000e+03 0.00000000e+00
2.41100e+03 0.00000000e+00
2.41200e+03 0.00000000e+00
2.41300e+03 0.00000000e+00
2.41400e+03 0.00000000e+00
2.41500e+03 0.00000000e+00
2.41600e+03 0.00000000e+00
2.41700e+03 0.00000000e+00
2.41800e+03 0.00000000e+00
2.41900e+03 0.00000000e+00
2.42000e+03 0.00000000e+00
2.42100e+03 0.00000000e+00
2.42200e+03 0.00000000e+00
2.42300e+03 0.00000000e+00
2.42400e+03 0.00000000e+00
2.42500e+03 0.00000000e+00
2.42600e+03 0.00000000e+00
2.42700e+03 0.00000000e+00
2.42800e+03 0.00000000e+00
2.42900e+03 0.00000000e+00
2.43000e+03 0.00000000e+00
2.43100e+03 0.00000000e+00
2.43200e+03 0.00000000e+00
2.43300e+03 0.00000000e+00
2.43400e+03 0.00000000e+00
2.43500e+03 0.00000000e+00
2.43600e+03 0.00000000e+00
2.43700e+03 0.00000000e+00
2.43800e+03 0.00000000e+00
2.43900e+03 0.00000000e+00
2.44000e+03 0.00000000e+00
2.44100e+03 0.00000000e+00
2.44200e+03 0.00000000e+00
2.44300e+03 0.00000000e+00
2.44400e+03 0.00000000e+00
2.44500e+03 0.00000000e+00
2.44600e+03 0.00000000e+00
2.44700e+03 0.00000000e+00
2.44800e+03 0.00000000e+00
2.44900e+03 0.00000000e+00
2.45000e+03 0.00000000e+00
2.45100e+03 0.00000000e+00
2.45200e+03 0.00000000e+00
2.45300e+03 0.00000000e+00
2.45400e+03 0.00000000e+00
2.45500e+03 0.00000000e+00
2.45600e+03 0.00000000e+00
2.45700e+03 0.00000000e+00
2.45800e+03 0.00000000e+00
2.45900e+03 0.00000000e+00
2.46000e+03 0.00000000e+00
2.46100e+03 0.00000000e+00
2.46200e+03 0.00000000e+00
2.46300e+03 0.00000000e+00
2.46400e+03 0.00000000e+00
2.46500e+03 0.00000000e+00
2.46600e+03 0.00000000e+00
2.46700e+03 0.00000000e+00
2.46800e+03 0.00000000e+00
2.46900e+03 0.00000000e+00
2.47000e+03 0.00000000e+00
2.47100e+03 0.00000000e+00
2.47200e+03 0.00000000e+00
2.47300e+03 0.00000000e+00
2.47400e+03 0.00000000e+00
2.47500e+03 0.00000000e+00
2.47600e+03 0.00000000e+00
2.47700e+03 0.00000000e+00
2.47800e+03 0.00000000e+00
2.47900e+03 0.00000000e+00
2.48000e+03 0.00000000e+00
2.48100e+03 0.00000000e+00
2.48200e+03 0.00000000e+00
2.48300e+03 0.00000000e+00
2.48400e+03 0.00000000e+00
2.48500e+03 0.00000000e+00
2.48600e+03 0.00000000e+00
2.48700e+03 0.00000000e+00
2.48800e+03 0.00000000e+00
2.48900e+03 0.00000000e+00
2.49000e+03 0.00000000e+00
2.49100e+03 0.00000000e+00
2.49200e+03 0.00000000e+00
2.49300e+03 0.00000000e+00
2.49400e+03 0.00000000e+00
2.49500e+03 0.00000000e+00
2.49600e+03 0.00000000e+00
2.49700e+03 0.00000000e+00
2.49800e+03 0.00000000e+00
2.49900e+03 0.00000000e+00
2.50000e+03 0.00000000e+00
2.50100e+03 0.00000000e+00
2.50200e+03 0.00000000e+00
2.50300e+03 0.00000000e+00
2.50400e+03 0.00000000e+00
2.50500e+03 0.00000000e+00
2.50600e+03 0.00000000e+00
2.50700e+03 0.00000000e+00
2.50800e+03 0.00000000e+00
2.50900e+03 0.00000000e+00
2.51000e+03 0.00000000e+00
2.51100e+03 0.00000000e+00
2.51200e+03 0.00000000e+00
2.51300e+03 0.00000000e+00
2.51400e+03 0.00000000e+00
2.51500e+03 0.00000000e+00
2.51600e+03 0.00000000e+00
2.51700e+03 0.00000000e+00
2.51800e+03 0.00000000e+00
2.51900e+03 0.00000000e+00
2.52000e+03 0.00000000e+00
2.52100e+03 0.00000000e+00
2.52200e+03 0.00000000e+00
2.52300e+03 0.00000000e+00
2.52400e+03 0.00000000e+00
2.52500e+03 0.00000000e+00
2.52600e+03 0.00000000e+00
2.52700e+03 0.00000000e+00
2.52800e+03 0.00000000e+00
2.52900e+03 0.00000000e+00
2.53000e+03 0.00000000e+00
2.53100e+03 0.00000000e+00
2.53200e+03 0.00000000e+00
2.53300e+03 0.00000000e+00
2.53400e+03 0.00000000e+00
2.53500e+03 0.00000000e+00
2.53600e+03 0.00000000e+00
2.53700e+03 0.00000000e+00
2.53800e+03 0.00000000e+00
2.53900e+03 0.00000000e+00
2.54000e+03 0.00000000e+00
2.54100e+03 0.00000000e+00
2.54200e+03 0.00000000e+00
2.54300e+03 0.00000000e+00
2.54400e+03 0.00000000e+00
2.54500e+03 0.00000000e+00
2.54600e+03 0.00000000e+00
2.54700e+03 0.00000000e+00
2.54800e+03 0.00000000e+00
2.54900e+03 0.00000000e+00
2.55000e+03 0.00000000e+00
2.55100e+03 0.00000000e+00
2.55200e+03 0.00000000e+00
2.55300e+03 0.00000000e+00
2.55400e+03 0.00000000e+00
2.55500e+03 0.00000000e+00
2.55600e+03 0.00000000e+00
2.55700e+03 0.00000000e+00
2.55800e+03 0.00000000e+00
2.55900e+03 0.00000000e+00
2.56000e+03 0.00000000e+00
2.56100e+03 0.00000000e+00
2.56200e+03 0.00000000e+00
2.56300e+03 0.00000000e+00
2.56400e+03 0.00000000e+00
2.56500e+03 0.00000000e+00
2.56600e+03 0.00000000e+00
2.56700e+03 0.00000000e+00
2.56800e+03 0.00000000e+00
2.56900e+03 0.00000000e+00
2.57000e+03 0.00000000e+00
2.57100e+03 0.00000000e+00
2.57200e+03 0.00000000e+00
2.57300e+03 0.00000000e+00
2.57400e+03 0.00000000e+00
2.57500e+03 0.00000000e+00
2.57600e+03 0.00000000e+00
2.57700e+03 0.00000000e+00
2.57800e+03 0.00000000e+00
2.57900e+03 0.00000000e+00
2.58000e+03 0.00000000e+00
2.58100e+03 0.00000000e+00
2.58200e+03 0.00000000e+00
2.58300e+03 0.00000000e+00
2.58400e+03 0.00000000e+00
2.58500e+03 0.00000000e+00
2.58600e+03 0.00000000e+00
2.58700e+03 0.00000000e+00
2.58800e+03 0.00000000e+00
2.58900e+03 0.00000000e+00
2.59000e+03 0.00000000e+00
2.59100e+03 0.00000000e+00
2.59200e+03 0.00000000e+00
2.59300e+03 0.00000000e+00
2.59400e+03 0.00000000e+00
2.59500e+03 0.00000000e+00
2.59600e+03 0.00000000e+00
2.59700e+03 0.00000000e+00
2.59800e+03 0.00000000e+00
2.59900e+03 0.00000000e+00
2.60000e+03 0.00000000e+00
2.60100e+03 0.00000000e+00
2.60200e+03 0.00000000e+00
2.60300e+03 0.00000000e+00
2.60400e+03 0.00000000e+00
2.60500e+03 0.00000000e+00
2.60600e+03 0.00000000e+00
2.60700e+03 0.00000000e+00
2.60800e+03 0.00000000e+00
2.60900e+03 0.00000000e+00
2.61000e+03 0.00000000e+00
2.61100e+03 0.00000000e+00
2.61200e+03 0.00000000e+00
2.61300e+03 0.00000000e+00
2.61400e+03 0.00000000e+00
2.61500e+03 0.00000000e+00
2.61600e+03 0.00000000e+00
2.61700e+03 0.00000000e+00
2.61800e+03 0.00000000e+00
2.61900e+03 0.00000000e+00
2.62000e+03 0.00000000e+00
2.62100e+03 0.00000000e+00
2.62200e+03 0.00000000e+00
2.62300e+03 0.00000000e+00
2.62400e+03 0.00000000e+00
2.62500e+03 0.00000000e+00
2.62600e+03 0.00000000e+00
2.62700e+03 0.00000000e+00
2.62800e+03 0.00000000e+00
2.62900e+03 0.00000000e+00
2.63000e+03 0.00000000e+00
2.63100e+03 0.00000000e+00
2.63200e+03 0.00000000e+00
2.63300e+03 0.00000000e+00
2.63400e+03 0.00000000e+00
2.63500e+03 0.00000000e+00
2.63600e+03 0.00000000e+00
2.63700e+03 0.00000000e+00
2.63800e+03 0.00000000e+00
2.63900e+03 0.00000000e+00
2.64000e+03 0.00000000e+00
2.64100e+03 0.00000000e+00
2.64200e+03 0.00000000e+00
2.64300e+03 0.00000000e+00
2.64400e+03 0.00000000e+00
2.64500e+03 0.00000000e+00
2.64600e+03 0.00000000e+00
2.64700e+03 0.00000000e+00
2.64800e+03 0.00000000e+00
2.64900e+03 0.00000000e+00
2.65000e+03 0.00000000e+00
2.65100e+03 0.00000000e+00
2.65200e+03 0.00000000e+00
2.65300e+03 0.00000000e+00
2.65400e+03 0.00000000e+00
2.65500e+03 0.00000000e+00
2.65600e+03 0.00000000e+00
2.65700e+03 0.00000000e+00
2.65800e+03 0.00000000e+00
2.65900e+03 0.00000000e+00
2.66000e+03 0.00000000e+00
2.66100e+03 0.00000000e+00
2.66200e+03 0.00000000e+00
2.66300e+03 0.00000000e+00
2.66400e+03 0.00000000e+00
2.66500e+03 0.00000000e+00
2.66600e+03 0.00000000e+00
2.66700e+03 0.00000000e+00
2.66800e+03 0.00000000e+00
2.66900e+03 0.00000000e+00
2.67000e+03 0.00000000e+00
2.67100e+03 0.00000000e+00
2.67200e+03 0.00000000e+00
2.67300e+03 0.00000000e+00
2.67400e+03 0.00000000e+00
2.67500e+03 0.00000000e+00
2.67600e+03 0.00000000e+00
2.67700e+03 0.00000000e+00
2.67800e+03 0.00000000e+00
2.67900e+03 0.00000000e+00
2.68000e+03 0.00000000e+00
2.68100e+03 0.00000000e+00
2.68200e+03 0.00000000e+00
2.68300e+03 0.00000000e+00
2.68400e+03 0.00000000e+00
2.68500e+03 0.00000000e+00
2.68600e+03 0.00000000e+00
2.68700e+03 0.00000000e+00
2.68800e+03 0.00000000e+00
2.68900e+03 0.00000000e+00
2.69000e+03 0.00000000e+00
2.69100e+03 0.00000000e+00
2.69200e+03 0.00000000e+00
2.69300e+03 0.00000000e+00
2.69400e+03 0.00000000e+00
2.69500e+03 0.00000000e+00
2.69600e+03 0.00000000e+00
2.69700e+03 0.00000000e+00
2.69800e+03 0.00000000e+00
2.69900e+03 0.00000000e+00
2.70000e+03 0.00000000e+00
2.70100e+03 0.00000000e+00
2.70200e+03 0.00000000e+00
2.70300e+03 0.00000000e+00
2.70400e+03 0.00000000e+00
2.70500e+03 0.00000000e+00
2.70600e+03 0.00000000e+00
2.70700e+03 0.00000000e+00
2.70800e+03 0.00000000e+00
2.70900e+03 0.00000000e+00
2.71000e+03 0.00000000e+00
2.71100e+03 0.00000000e+00
2.71200e+03 0.00000000e+00
2.71300e+03 0.00000000e+00
2.71400e+03 0.00000000e+00
2.71500e+03 0.00000000e+00
2.71600e+03 0.00000000e+00
2.71700e+03 0.00000000e+00
2.71800e+03 0.00000000e+00
2.71900e+03 0.00000000e+00
2.72000e+03 0.00000000e+00
2.72100e+03 0.00000000e+00
2.72200e+03 0.00000000e+00
2.72300e+03 0.00000000e+00
2.72400e+03 0.00000000e+00
2.72500e+03 0.00000000e+00
2.72600e+03 0.00000000e+00
2.72700e+03 0.00000000e+00
2.72800e+03 0.00000000e+00
2.72900e+03 0.00000000e+00
2.73000e+03 0.00000000e+00
2.73100e+03 0.00000000e+00
2.73200e+03 0.00000000e+00
2.73300e+03 0.00000000e+00
2.73400e+03 0.00000000e+00
2.73500e+03 0.00000000e+00
2.73600e+03 0.00000000e+00
2.73700e+03 0.00000000e+00
2.73800e+03 0.00000000e+00
2.73900e+03 0.00000000e+00
2.74000e+03 0.00000000e+00
2.74100e+03 0.00000000e+00
2.74200e+03 0.00000000e+00
2.74300e+03 0.00000000e+00
2.74400e+03 0.00000000e+00
2.74500e+03 0.00000000e+00
2.74600e+03 0.00000000e+00
2.74700e+03 0.00000000e+00
2.74800e+03 0.00000000e+00
2.74900e+03 0.00000000e+00
2.75000e+03 0.00000000e+00
2.75100e+03 0.00000000e+00
2.75200e+03 0.00000000e+00
2.75300e+03 0.00000000e+00
2.75400e+03 0.00000000e+00
2.75500e+03 0.00000000e+00
2.75600e+03 0.00000000e+00
2.75700e+03 0.00000000e+00
2.75800e+03 0.00000000e+00
2.75900e+03 0.00000000e+00
2.76000e+03 0.00000000e+00
2.76100e+03 0.00000000e+00
2.76200e+03 0.00000000e+00
2.76300e+03 0.00000000e+00
2.76400e+03 0.00000000e+00
2.76500e+03 0.00000000e+00
2.76600e+03 0.00000000e+00
2.76700e+03 0.00000000e+00
2.76800e+03 0.00000000e+00
2.76900e+03 0.00000000e+00
2.77000e+03 0.00000000e+00
2.77100e+03 0.00000000e+00
2.77200e+03 0.00000000e+00
2.77300e+03 0.00000000e+00
2.77400e+03 0.00000000e+00
2.77500e+03 0.00000000e+00
2.77600e+03 0.00000000e+00
2.77700e+03 0.00000000e+00
2.77800e+03 0.00000000e+00
2.77900e+03 0.00000000e+00
2.78000e+03 0.00000000e+00
2.78100e+03 0.00000000e+00
2.78200e+03 0.00000000e+00
2.78300e+03 0.00000000e+00
2.78400e+03 0.00000000e+00
2.78500e+03 0.00000000e+00
2.78600e+03 0.00000000e+00
2.78700e+03 0.00000000e+00
2.78800e+03 0.00000000e+00
2.78900e+03 0.00000000e+00
2.79000e+03 0.00000000e+00
2.79100e+03 0.00000000e+00
2.79200e+03 0.00000000e+00
2.79300e+03 0.00000000e+00
2.79400e+03 0.00000000e+00
2.79500e+03 0.00000000e+00
2.79600e+03 0.00000000e+00
2.79700e+03 0.00000000e+00
2.79800e+03 0.00000000e+00
2.79900e+03 0.00000000e+00
2.80000e+03 0.00000000e+00
2.80100e+03 0.00000000e+00
2.80200e+03 0.00000000e+00
2.80300e+03 0.00000000e+00
2.80400e+03 0.00000000e+00
2.80500e+03 0.00000000e+00
2.80600e+03 0.00000000e+00
2.80700e+03 0.00000000e+00
2.80800e+03 0.00000000e+00
2.80900e+03 0.00000000e+00
2.81000e+03 0.00000000e+00
2.81100e+03 0.00000000e+00
2.81200e+03 0.00000000e+00
2.81300e+03 0.00000000e+00
2.81400e+03 0.00000000e+00
2.81500e+03 0.00000000e+00
2.81600e+03 0.00000000e+00
2.81700e+03 0.00000000e+00
2.81800e+03 0.00000000e+00
2.81900e+03 0.00000000e+00
2.82000e+03 0.00000000e+00
2.82100e+03 0.00000000e+00
2.82200e+03 0.00000000e+00
2.82300e+03 0.00000000e+00
2.82400e+03 0.00000000e+00
2.82500e+03 0.00000000e+00
2.82600e+03 0.00000000e+00
2.82700e+03 0.00000000e+00
2.82800e+03 0.00000000e+00
2.82900e+03 0.00000000e+00
2.83000e+03 0.00000000e+00
2.83100e+03 0.00000000e+00
2.83200e+03 0.00000000e+00
2.83300e+03 0.00000000e+00
2.83400e+03 0.00000000e+00
2.83500e+03 0.00000000e+00
2.83600e+03 0.00000000e+00
2.83700e+03 0.00000000e+00
2.83800e+03 0.00000000e+00
2.83900e+03 0.00000000e+00
2.84000e+03 0.00000000e+00
2.84100e+03 0.00000000e+00
2.84200e+03 0.00000000e+00
2.84300e+03 0.00000000e+00
2.84400e+03 0.00000000e+00
2.84500e+03 0.00000000e+00
2.84600e+03 0.00000000e+00
2.84700e+03 0.00000000e+00
2.84800e+03 0.00000000e+00
2.84900e+03 0.00000000e+00
2.85000e+03 0.00000000e+00
2.85100e+03 0.00000000e+00
2.85200e+03 0.00000000e+00
2.85300e+03 0.00000000e+00
2.85400e+03 0.00000000e+00
2.85500e+03 0.00000000e+00
2.85600e+03 0.00000000e+00
2.85700e+03 0.00000000e+00
2.85800e+03 0.00000000e+00
2.85900e+03 0.00000000e+00
2.86000e+03 0.00000000e+00
2.86100e+03 0.00000000e+00
2.86200e+03 0.00000000e+00
2.86300e+03 0.00000000e+00
2.86400e+03 0.00000000e+00
2.86500e+03 0.00000000e+00
2.86600e+03 0.00000000e+00
2.86700e+03 0.00000000e+00
2.86800e+03 0.00000000e+00
2.86900e+03 0.00000000e+00
2.87000e+03 0.00000000e+00
2.87100e+03 0.00000000e+00
2.87200e+03 0.00000000e+00
2.87300e+03 0.00000000e+00
2.87400e+03 0.00000000e+00
2.87500e+03 0.00000000e+00
2.87600e+03 0.00000000e+00
2.87700e+03 0.00000000e+00
2.87800e+03 0.00000000e+00
2.87900e+03 0.00000000e+00
2.88000e+03 1.01876336e-319
2.88100e+03 1.26403939e-316
2.88200e+03 1.51591449e-313
2.88300e+03 1.75557670e-310
2.88400e+03 1.96334154e-307
2.88500e+03 2.12032699e-304
2.88600e+03 2.21126487e-301
2.88700e+03 2.22694572e-298
2.88800e+03 2.16575556e-295
2.88900e+03 2.03394958e-292
2.89000e+03 1.84459858e-289
2.89100e+03 1.61545362e-286
2.89200e+03 1.36621189e-283
2.89300e+03 1.11576457e-280
2.89400e+03 8.79950034e-278
2.89500e+03 6.70153667e-275
2.89600e+03 4.92857902e-272
2.89700e+03 3.50025746e-269
2.89800e+03 2.40054137e-266
2.89900e+03 1.58982507e-263
2.90000e+03 1.01676462e-260
2.90100e+03 6.27946223e-258
2.90200e+03 3.74503101e-255
2.90300e+03 2.15684693e-252
2.90400e+03 1.19953844e-249
2.90500e+03 6.44228533e-247
2.90600e+03 3.34115545e-244
2.90700e+03 1.67334060e-241
2.90800e+03 8.09287725e-239
2.90900e+03 3.77965795e-236
2.91000e+03 1.70464121e-233
2.91100e+03 7.42411021e-231
2.91200e+03 3.12238733e-228
2.91300e+03 1.26811921e-225
2.91400e+03 4.97352526e-223
2.91500e+03 1.88364698e-220
2.91600e+03 6.88914998e-218
2.91700e+03 2.43311539e-215
2.91800e+03 8.29833018e-213
2.91900e+03 2.73306309e-210
2.92000e+03 8.69239679e-208
2.92100e+03 2.66968713e-205
2.92200e+03 7.91793868e-203
2.92300e+03 2.26774825e-200
2.92400e+03 6.27203518e-198
2.92500e+03 1.67514757e-195
2.92600e+03 4.32044616e-193
2.92700e+03 1.07605647e-190
2.92800e+03 2.58804885e-188
2.92900e+03 6.01091816e-186
2.93000e+03 1.34815585e-183
2.93100e+03 2.91991579e-181
2.93200e+03 6.10705023e-179
2.93300e+03 1.23345582e-176
2.93400e+03 2.40572867e-174
2.93500e+03 4.53106852e-172
2.93600e+03 8.24110705e-170
2.93700e+03 1.44744284e-167
2.93800e+03 2.45498152e-165
2.93900e+03 4.02092501e-163
2.94000e+03 6.35967115e-161
2.94100e+03 9.71346736e-159
2.94200e+03 1.43266566e-156
2.94300e+03 2.04054585e-154
2.94400e+03 2.80658890e-152
2.94500e+03 3.72771060e-150
2.94600e+03 4.78119564e-148
2.94700e+03 5.92190970e-146
2.94800e+03 7.08301214e-144
2.94900e+03 8.18097626e-142
2.95000e+03 9.12479714e-140
2.95100e+03 9.82816059e-138
2.95200e+03 1.02223845e-135
2.95300e+03 1.02674623e-133
2.95400e+03 9.95875303e-132
2.95500e+03 9.32776828e-130
2.95600e+03 8.43687228e-128
2.95700e+03 7.36912869e-126
2.95800e+03 6.21558124e-124
2.95900e+03 5.06265454e-122
2.96000e+03 3.98204148e-120
2.96100e+03 3.02457394e-118
2.96200e+03 2.21847006e-116
2.96300e+03 1.57135344e-114
2.96400e+03 1.07479374e-112
2.96500e+03 7.09916570e-111
2.96600e+03 4.52814620e-109
2.96700e+03 2.78910271e-107
2.96800e+03 1.65897375e-105
2.96900e+03 9.52895909e-104
2.97000e+03 5.28545464e-102
2.97100e+03 2.83106720e-100
2.97200e+03 1.46436367e-98
2.97300e+03 7.31439914e-97
2.97400e+03 3.52808715e-95
2.97500e+03 1.64335312e-93
2.97600e+03 7.39185476e-92
2.97700e+03 3.21075299e-90
2.97800e+03 1.34676341e-88
2.97900e+03 5.45514954e-87
2.98000e+03 2.13379628e-85
2.98100e+03 8.05990993e-84
2.98200e+03 2.93993930e-82
2.98300e+03 1.03556528e-80
2.98400e+03 3.52247193e-79
2.98500e+03 1.15704045e-77
2.98600e+03 3.67012186e-76
2.98700e+03 1.12419946e-74
2.98800e+03 3.32534875e-73
2.98900e+03 9.49865187e-72
2.99000e+03 2.62009891e-70
2.99100e+03 6.97917915e-69
2.99200e+03 1.79523766e-67
2.99300e+03 4.45933913e-66
2.99400e+03 1.06967045e-64
2.99500e+03 2.47776688e-63
2.99600e+03 5.54245066e-62
2.99700e+03 1.19722059e-60
2.99800e+03 2.49733884e-59
2.99900e+03 5.03050655e-58
3.00000e+03 9.78536253e-57
3.00100e+03 1.83811669e-55
3.00200e+03 3.33426563e-54
3.00300e+03 5.84061090e-53
3.00400e+03 9.87978102e-52
3.00500e+03 1.61386548e-50
3.00600e+03 2.54576504e-49
3.00700e+03 3.87793283e-48
3.00800e+03 5.70444281e-47
3.00900e+03 8.10321138e-46
3.01000e+03 1.11155793e-44
3.01100e+03 1.47244147e-43
3.01200e+03 1.88354064e-42
3.01300e+03 2.32671385e-41
3.01400e+03 2.77550487e-40
3.01500e+03 3.19721663e-39
3.01600e+03 3.55658508e-38
3.01700e+03 3.82054596e-37
3.01800e+03 3.96322532e-36
3.01900e+03 3.97011633e-35
3.02000e+03 3.84050966e-34
3.02100e+03 3.58761380e-33
3.02200e+03 3.23633702e-32
3.02300e+03 2.81924662e-31
3.02400e+03 2.37161243e-30
3.02500e+03 1.92657422e-29
3.02600e+03 1.51132968e-28
3.02700e+03 1.14489114e-27
3.02800e+03 8.37530776e-27
3.02900e+03 5.91655695e-26
3.03000e+03 4.03616700e-25
3.03100e+03 2.65889469e-24
3.03200e+03 1.69147359e-23
3.03300e+03 1.03911006e-22
3.03400e+03 6.16439285e-22
3.03500e+03 3.53143910e-21
3.03600e+03 1.95364675e-20
3.03700e+03 1.04369488e-19
3.03800e+03 5.38436630e-19
3.03900e+03 2.68243715e-18
3.04000e+03 1.29050256e-17
3.04100e+03 5.99546752e-17
3.04200e+03 2.68981679e-16
3.04300e+03 1.16535567e-15
3.04400e+03 4.87563542e-15
3.04500e+03 1.96988929e-14
3.04600e+03 7.68584021e-14
3.04700e+03 2.89588345e-13
3.04800e+03 1.05368906e-12
3.04900e+03 3.70243345e-12
3.05000e+03 1.25634088e-11
3.05100e+03 4.11694992e-11
3.05200e+03 1.30285003e-10
3.05300e+03 3.98169035e-10
3.05400e+03 1.17516519e-09
3.05500e+03 3.34960647e-09
3.05600e+03 9.22058041e-09
3.05700e+03 2.45131946e-08
3.05800e+03 6.29401999e-08
3.05900e+03 1.56082620e-07
3.06000e+03 3.73846942e-07
3.06100e+03 8.64897103e-07
3.06200e+03 1.93281294e-06
3.06300e+03 4.17253437e-06
3.06400e+03 8.70228252e-06
3.06500e+03 1.75363477e-05
3.06600e+03 3.41493119e-05
3.06700e+03 6.42754008e-05
3.06800e+03 1.16959563e-04
3.06900e+03 2.05823633e-04
3.07000e+03 3.50433442e-04
3.07100e+03 5.77566982e-04
3.07200e+03 9.22122898e-04
3.07300e+03 1.42741870e-03
3.07400e+03 2.14475082e-03
3.07500e+03 3.13233269e-03
3.07600e+03 4.45403599e-03
3.07700e+03 6.17859695e-03
3.07800e+03 8.37991507e-03
3.07900e+03 1.11385838e-02
3.08000e+03 1.45437966e-02
3.08100e+03 1.86934691e-02
3.08200e+03 2.36893024e-02
3.08300e+03 2.96232992e-02
3.08400e+03 3.65535893e-02
3.08500e+03 4.44705819e-02
3.08600e+03 5.32589526e-02
3.08700e+03 6.26654778e-02
3.08800e+03 7.22853805e-02
3.08900e+03 8.15788747e-02
3.09000e+03 8.99241408e-02
3.09100e+03 9.67037079e-02
3.09200e+03 1.01410525e-01
3.09300e+03 1.03751271e-01
3.09400e+03 1.03720997e-01
3.09500e+03 1.01627037e-01
3.09600e+03 9.80508623e-02
3.09700e+03 9.37517541e-02
3.09800e+03 8.95315032e-02
3.09900e+03 8.60905049e-02
3.10000e+03 8.39092969e-02
3.10100e+03 8.31845634e-02
3.10200e+03 8.38360188e-02
3.10300e+03 8.55834084e-02
3.10400e+03 8.80752143e-02
3.10500e+03 9.10367474e-02
3.10600e+03 9.43985320e-02
3.10700e+03 9.83681704e-02
3.10800e+03 1.03420235e-01
3.10900e+03 1.10197205e-01
3.11000e+03 1.19336373e-01
3.11100e+03 1.31258090e-01
3.11200e+03 1.45964699e-01
3.11300e+03 1.62902693e-01
3.11400e+03 1.80930998e-01
3.11500e+03 1.98416668e-01
3.11600e+03 2.13449911e-01
3.11700e+03 2.24140474e-01
3.11800e+03 2.28934938e-01
3.11900e+03 2.26886480e-01
3.12000e+03 2.17818171e-01
3.12100e+03 2.02345799e-01
3.12200e+03 1.81759803e-01
3.12300e+03 1.57798371e-01
3.12400e+03 1.32366135e-01
3.12500e+03 1.07259574e-01
3.12600e+03 8.39508841e-02
3.12700e+03 6.34613347e-02
3.12800e+03 4.63302999e-02
3.12900e+03 3.26646768e-02
3.13000e+03 2.22402439e-02
3.13100e+03 1.46232058e-02
3.13200e+03 9.28503627e-03
3.13300e+03 5.69324768e-03
3.13400e+03 3.37109039e-03
3.13500e+03 1.92758495e-03
3.13600e+03 1.06436062e-03
3.13700e+03 5.67539096e-04
3.13800e+03 2.92236331e-04
3.13900e+03 1.45312806e-04
3.14000e+03 6.97757828e-05
3.14100e+03 3.23546434e-05
3.14200e+03 1.44877033e-05
3.14300e+03 6.26460170e-06
3.14400e+03 2.61588327e-06
3.14500e+03 1.05480995e-06
3.14600e+03 4.10734356e-07
3.14700e+03 1.54446757e-07
3.14800e+03 5.60825176e-08
3.14900e+03 1.96655978e-08
3.15000e+03 6.65913391e-09
3.15100e+03 2.17750562e-09
3.15200e+03 6.87593498e-10
3.15300e+03 2.09669461e-10
3.15400e+03 6.17404140e-11
3.15500e+03 1.75563745e-11
3.15600e+03 4.82093277e-12
3.15700e+03 1.27837496e-12
3.15800e+03 3.27353036e-13
3.15900e+03 8.09478712e-14
3.16000e+03 1.93297141e-14
3.16100e+03 4.45734623e-15
3.16200e+03 9.92563382e-16
3.16300e+03 2.13437668e-16
3.16400e+03 4.43215385e-17
3.16500e+03 8.88770285e-18
3.16600e+03 1.72105665e-18
3.16700e+03 3.21833868e-19
3.16800e+03 5.81164748e-20
3.16900e+03 1.01343926e-20
3.17000e+03 1.70658185e-21
3.17100e+03 2.77515638e-22
3.17200e+03 4.35791485e-23
3.17300e+03 6.60847055e-24
3.17400e+03 9.67729807e-25
3.17500e+03 1.36847925e-25
3.17600e+03 1.86875882e-26
3.17700e+03 2.46433211e-27
3.17800e+03 3.13816775e-28
3.17900e+03 3.85908206e-29
3.18000e+03 4.58271461e-30
3.18100e+03 5.25523997e-31
3.18200e+03 5.81960128e-32
3.18300e+03 6.22335894e-33
3.18400e+03 6.42669085e-34
3.18500e+03 6.40886183e-35
3.18600e+03 6.17170768e-36
3.18700e+03 5.73932379e-37
3.18800e+03 5.15403123e-38
3.18900e+03 4.46955520e-39
3.19000e+03 3.74293689e-40
3.19100e+03 3.02685518e-41
3.19200e+03 2.36375098e-42
3.19300e+03 1.78255419e-43
3.19400e+03 1.29811958e-44
3.19500e+03 9.12888213e-46
3.19600e+03 6.19942541e-47
3.19700e+03 4.06552109e-48
3.19800e+03 2.57461288e-49
3.19900e+03 1.57448525e-50
3.20000e+03 9.29814245e-52
3.20100e+03 5.30254954e-53
3.20200e+03 2.92014363e-54
3.20300e+03 1.55293984e-55
3.20400e+03 7.97509733e-57
3.20500e+03 3.95501642e-58
3.20600e+03 1.89405040e-59
3.20700e+03 8.75922555e-61
3.20800e+03 3.91174764e-62
3.20900e+03 1.68696817e-63
3.21000e+03 7.02544579e-65
3.21100e+03 2.82534721e-66
3.21200e+03 1.09723766e-67
3.21300e+03 4.11491174e-69
3.21400e+03 1.49022307e-70
3.21500e+03 5.21162289e-72
3.21600e+03 1.76005250e-73
3.21700e+03 5.73996443e-75
3.21800e+03 1.80768902e-76
3.21900e+03 5.49754990e-78
3.22000e+03 1.61452799e-79
3.22100e+03 4.57881312e-81
3.22200e+03 1.25398170e-82
3.22300e+03 3.31635044e-84
3.22400e+03 8.46955467e-86
3.22500e+03 2.08877507e-87
3.22600e+03 4.97454901e-89
3.22700e+03 1.14405445e-90
3.22800e+03 2.54080077e-92
3.22900e+03 5.44910870e-94
3.23000e+03 1.12852523e-95
3.23100e+03 2.25698156e-97
3.23200e+03 4.35888779e-99
3.23300e+03 8.12932167e-101
3.23400e+03 1.46407683e-102
3.23500e+03 2.54626949e-104
3.23600e+03 4.27637524e-106
3.23700e+03 6.93550654e-108
3.23800e+03 1.08620427e-109
3.23900e+03 1.64276622e-111
3.24000e+03 2.39922492e-113
3.24100e+03 3.38374091e-115
3.24200e+03 4.60844259e-117
3.24300e+03 6.06097093e-119
3.24400e+03 7.69770317e-121
3.24500e+03 9.44084917e-123
3.24600e+03 1.11812897e-124
3.24700e+03 1.27880309e-126
3.24800e+03 1.41236321e-128
3.24900e+03 1.50632976e-130
3.25000e+03 1.55140310e-132
3.25100e+03 1.54297964e-134
3.25200e+03 1.48192653e-136
3.25300e+03 1.37443464e-138
3.25400e+03 1.23098413e-140
3.25500e+03 1.06466200e-142
3.25600e+03 8.89205194e-145
3.25700e+03 7.17171744e-147
3.25800e+03 5.58567020e-149
3.25900e+03 4.20105482e-151
3.26000e+03 3.05121175e-153
3.26100e+03 2.14001732e-155
3.26200e+03 1.44941639e-157
3.26300e+03 9.47981770e-160
3.26400e+03 5.98739272e-162
3.26500e+03 3.65179546e-164
3.26600e+03 2.15082999e-166
3.26700e+03 1.22331039e-168
3.26800e+03 6.71890008e-171
3.26900e+03 3.56361388e-173
3.27000e+03 1.82521505e-175
3.27100e+03 9.02751836e-178
3.27200e+03 4.31175087e-180
3.27300e+03 1.98870277e-182
3.27400e+03 8.85761986e-185
3.27500e+03 3.80973824e-187
3.27600e+03 1.58235592e-189
3.27700e+03 6.34664426e-192
3.27800e+03 2.45818789e-194
3.27900e+03 9.19426325e-197
3.28000e+03 3.32085363e-199
3.28100e+03 1.15827977e-201
3.28200e+03 3.90128926e-204
3.28300e+03 1.26891862e-206
3.28400e+03 3.98556899e-209
3.28500e+03 1.20886507e-211
3.28600e+03 3.54075820e-214
3.28700e+03 1.00148777e-216
3.28800e+03 2.73543228e-219
3.28900e+03 7.21501482e-222
3.29000e+03 1.83772036e-224
3.29100e+03 4.52014708e-227
3.29200e+03 1.07363496e-229
3.29300e+03 2.46258747e-232
3.29400e+03 5.45453364e-235
3.29500e+03 1.16668744e-237
3.29600e+03 2.40980756e-240
3.29700e+03 4.80663497e-243
3.29800e+03 9.25829173e-246
3.29900e+03 1.72207285e-248
3.30000e+03 3.09316523e-251
3.30100e+03 5.36519683e-254
3.30200e+03 8.98667713e-257
3.30300e+03 1.45359546e-259
3.30400e+03 2.27048647e-262
3.30500e+03 3.42472116e-265
3.30600e+03 4.98841362e-268
3.30700e+03 7.01666328e-271
3.30800e+03 9.53080875e-274
3.30900e+03 1.25014335e-276
3.31000e+03 1.58351001e-279
3.31100e+03 1.93692477e-282
3.31200e+03 2.28789259e-285
3.31300e+03 2.60969319e-288
3.31400e+03 2.87457875e-291
3.31500e+03 3.05766506e-294
3.31600e+03 3.14077301e-297
3.31700e+03 3.11540225e-300
3.31800e+03 2.98416374e-303
3.31900e+03 2.76033701e-306
3.32000e+03 2.46565613e-309
3.32100e+03 2.12683523e-312
3.32200e+03 1.77160003e-315
3.32300e+03 1.42614519e-318
3.32400e+03 0.00000000e+00
3.32500e+03 0.00000000e+00
3.32600e+03 0.00000000e+00
3.32700e+03 0.00000000e+00
3.32800e+03 0.00000000e+00
3.32900e+03 0.00000000e+00
3.33000e+03 0.00000000e+00
3.33100e+03 0.00000000e+00
3.33200e+03 0.00000000e+00
3.33300e+03 0.00000000e+00
3.33400e+03 0.00000000e+00
3.33500e+03 0.00000000e+00
3.33600e+03 0.00000000e+00
3.33700e+03 0.00000000e+00
3.33800e+03 0.00000000e+00
3.33900e+03 0.00000000e+00
3.34000e+03 0.00000000e+00
3.34100e+03 0.00000000e+00
3.34200e+03 0.00000000e+00
3.34300e+03 0.00000000e+00
3.34400e+03 0.00000000e+00
3.34500e+03 0.00000000e+00
3.34600e+03 0.00000000e+00
3.34700e+03 0.00000000e+00
3.34800e+03 0.00000000e+00
3.34900e+03 0.00000000e+00
3.35000e+03 0.00000000e+00
3.35100e+03 0.00000000e+00
3.35200e+03 0.00000000e+00
3.35300e+03 0.00000000e+00
3.35400e+03 0.00000000e+00
3.35500e+03 0.00000000e+00
3.35600e+03 0.00000000e+00
3.35700e+03 0.00000000e+00
3.35800e+03 0.00000000e+00
3.35900e+03 0.00000000e+00
3.36000e+03 0.00000000e+00
3.36100e+03 0.00000000e+00
3.36200e+03 0.00000000e+00
3.36300e+03 0.00000000e+00
3.36400e+03 0.00000000e+00
3.36500e+03 0.00000000e+00
3.36600e+03 0.00000000e+00
3.36700e+03 0.00000000e+00
3.36800e+03 0.00000000e+00
3.36900e+03 0.00000000e+00
3.37000e+03 0.00000000e+00
3.37100e+03 0.00000000e+00
3.37200e+03 0.00000000e+00
3.37300e+03 0.00000000e+00
3.37400e+03 0.00000000e+00
3.37500e+03 0.00000000e+00
3.37600e+03 0.00000000e+00
3.37700e+03 0.00000000e+00
3.37800e+03 0.00000000e+00
3.37900e+03 0.00000000e+00
3.38000e+03 0.00000000e+00
3.38100e+03 0.00000000e+00
3.38200e+03 0.00000000e+00
3.38300e+03 0.00000000e+00
3.38400e+03 0.00000000e+00
3.38500e+03 0.00000000e+00
3.38600e+03 0.00000000e+00
3.38700e+03 0.00000000e+00
3.38800e+03 0.00000000e+00
3.38900e+03 0.00000000e+00
3.39000e+03 0.00000000e+00
3.39100e+03 0.00000000e+00
3.39200e+03 0.00000000e+00
3.39300e+03 0.00000000e+00
3.39400e+03 0.00000000e+00
3.39500e+03 0.00000000e+00
3.39600e+03 0.00000000e+00
3.39700e+03 0.00000000e+00
3.39800e+03 0.00000000e+00
3.39900e+03 0.00000000e+00
3.40000e+03 0.00000000e+00
3.40100e+03 0.00000000e+00
3.40200e+03 0.00000000e+00
3.40300e+03 0.00000000e+00
3.40400e+03 0.00000000e+00
3.40500e+03 0.00000000e+00
3.40600e+03 0.00000000e+00
3.40700e+03 0.00000000e+00
3.40800e+03 0.00000000e+00
3.40900e+03 0.00000000e+00
3.41000e+03 0.00000000e+00
3.41100e+03 0.00000000e+00
3.41200e+03 0.00000000e+00
3.41300e+03 0.00000000e+00
3.41400e+03 0.00000000e+00
3.41500e+03 0.00000000e+00
3.41600e+03 0.00000000e+00
3.41700e+03 0.00000000e+00
3.41800e+03 0.00000000e+00
3.41900e+03 0.00000000e+00
3.42000e+03 0.00000000e+00
3.42100e+03 0.00000000e+00
3.42200e+03 0.00000000e+00
3.42300e+03 0.00000000e+00
3.42400e+03 0.00000000e+00
3.42500e+03 0.00000000e+00
3.42600e+03 0.00000000e+00
3.42700e+03 0.00000000e+00
3.42800e+03 0.00000000e+00
3.42900e+03 0.00000000e+00
3.43000e+03 0.00000000e+00
3.43100e+03 0.00000000e+00
3.43200e+03 0.00000000e+00
3.43300e+03 0.00000000e+00
3.43400e+03 0.00000000e+00
3.43500e+03 0.00000000e+00
3.43600e+03 0.00000000e+00
3.43700e+03 0.00000000e+00
3.43800e+03 0.00000000e+00
3.43900e+03 0.00000000e+00
3.44000e+03 0.00000000e+00
3.44100e+03 0.00000000e+00
3.44200e+03 0.00000000e+00
3.44300e+03 0.00000000e+00
3.44400e+03 0.00000000e+00
3.44500e+03 0.00000000e+00
3.44600e+03 0.00000000e+00
3.44700e+03 0.00000000e+00
3.44800e+03 0.00000000e+00
3.44900e+03 0.00000000e+00
3.45000e+03 0.00000000e+00
3.45100e+03 0.00000000e+00
3.45200e+03 0.00000000e+00
3.45300e+03 0.00000000e+00
3.45400e+03 0.00000000e+00
3.45500e+03 0.00000000e+00
3.45600e+03 0.00000000e+00
3.45700e+03 0.00000000e+00
3.45800e+03 0.00000000e+00
3.45900e+03 0.00000000e+00
3.46000e+03 0.00000000e+00
3.46100e+03 0.00000000e+00
3.46200e+03 0.00000000e+00
3.46300e+03 0.00000000e+00
3.46400e+03 0.00000000e+00
3.46500e+03 0.00000000e+00
3.46600e+03 0.00000000e+00
3.46700e+03 0.00000000e+00
3.46800e+03 0.00000000e+00
3.46900e+03 0.00000000e+00
3.47000e+03 0.00000000e+00
3.47100e+03 0.00000000e+00
3.47200e+03 0.00000000e+00
3.47300e+03 0.00000000e+00
3.47400e+03 0.00000000e+00
3.47500e+03 0.00000000e+00
3.47600e+03 0.00000000e+00
3.47700e+03 0.00000000e+00
3.47800e+03 0.00000000e+00
3.47900e+03 0.00000000e+00
3.48000e+03 0.00000000e+00
3.48100e+03 0.00000000e+00
3.48200e+03 0.00000000e+00
3.48300e+03 0.00000000e+00
3.48400e+03 0.00000000e+00
3.48500e+03 0.00000000e+00
3.48600e+03 0.00000000e+00
3.48700e+03 0.00000000e+00
3.48800e+03 0.00000000e+00
3.48900e+03 0.00000000e+00
3.49000e+03 0.00000000e+00
3.49100e+03 0.00000000e+00
3.49200e+03 0.00000000e+00
3.49300e+03 0.00000000e+00
3.49400e+03 0.00000000e+00
3.49500e+03 0.00000000e+00
3.49600e+03 0.00000000e+00
3.49700e+03 0.00000000e+00
3.49800e+03 0.00000000e+00
3.49900e+03 0.00000000e+00
3.50000e+03 0.00000000e+00
